Name,Kevin Dejbod
Date of Birth,"27 Sep 1999"
Recorded Date,2021-12-17 12:58:58 +0800
Classification,Sinus Rhythm
Symptoms,
Software Version,1.90
Device,"Watch5,1"
Sample Rate,513.625 hertz


Lead,Lead I
Unit,µV

27.648
26.053
24.462
22.867
21.255
19.615
17.93
16.186
14.366
12.46
10.454
8.334
6.088
3.706
1.184
-1.477
-4.279
-7.233
-10.357
-13.681
-17.223
-20.992
-24.994
-29.229
-33.692
-38.366
-43.214
-48.173
-53.186
-58.201
-63.181
-68.096
-72.897
-77.525
-81.906
-85.969
-89.66
-92.953
-95.831
-98.294
-100.377
-102.129
-103.647
-105.086
-106.595
-108.329
-110.434
-113.031
-116.248
-120.253
-125.265
-131.413
-138.663
-146.793
-155.372
-163.932
-172.086
-179.369
-185.088
-188.699
-190.098
-189.671
-188.491
-187.725
-187.991
-189.826
-193.996
-200.846
-209.902
-219.666
-227.132
-228.952
-222.835
-206.165
-175.731
-129.32
-65.47
14.085
103.149
197.746
295.956
397.15
503.798
607.855
692.935
743.721
744.387
696.349
615.276
513.619
401.942
280.028
142.522
-3.04
-137.947
-240.042
-293.696
-300.904
-279.04
-246.373
-213.897
-183.418
-149.532
-109.542
-66.173
-24.342
9.753
32.583
44.203
45.689
38.87
26.084
9.544
-8.544
-25.689
-40.051
-50.943
-57.95
-60.995
-60.642
-57.486
-52.532
-47.519
-43.537
-40.809
-39.676
-40.3
-42.713
-47.346
-53.781
-60.592
-66.994
-72.715
-77.283
-80.428
-81.637
-79.839
-75.044
-68.359
-60.435
-51.702
-42.626
-33.37
-24.444
-16.84
-10.691
-5.331
-0.32
4.721
10.032
15.512
21.308
27.846
35.16
42.958
51.011
59.071
67.033
75.001
82.978
90.868
98.639
106.292
113.824
121.258
128.566
135.659
142.467
148.928
154.997
160.649
165.862
170.605
174.845
178.542
181.655
184.148
186.003
187.204
187.74
187.612
186.827
185.407
183.402
180.858
177.816
174.309
170.338
165.906
161.024
155.704
149.966
143.81
137.202
130.096
122.466
114.275
105.49
96.058
85.873
74.851
62.943
50.122
36.426
21.922
6.671
-9.244
-25.708
-42.574
-59.626
-76.621
-93.364
-109.658
-125.312
-140.12
-153.805
-166.126
-176.902
-185.993
-193.327
-198.879
-202.62
-204.558
-204.779
-203.404
-200.63
-196.696
-191.78
-186.047
-179.666
-172.811
-165.709
-158.57
-151.542
-144.739
-138.241
-132.106
-126.398
-121.16
-116.364
-111.957
-107.848
-103.917
-100.101
-96.359
-92.646
-88.926
-85.141
-81.253
-77.267
-73.189
-69.026
-64.791
-60.486
-56.142
-51.843
-47.635
-43.569
-39.782
-36.369
-33.402
-30.967
-29.056
-27.61
-26.694
-26.386
-26.466
-26.681
-27.176
-27.932
-28.899
-30.593
-31.562
-30.394
-29.048
-28.104
-31.188
-42.647
-57.62
-72.862
-83.551
-83.076
-77.257
-71.023
-67.746
-73.003
-82.763
-92.938
-102.596
-109.231
-114.245
-119.451
-124.462
-129.481
-134.357
-138.697
-142.724
-146.609
-150.256
-153.616
-156.686
-159.451
-161.889
-163.986
-165.71
-167.029
-167.992
-168.672
-169.111
-169.34
-169.366
-169.173
-168.76
-168.129
-167.276
-166.199
-164.869
-163.249
-161.319
-159.074
-156.499
-153.554
-150.158
-146.186
-141.546
-136.208
-130.187
-123.528
-116.278
-108.494
-100.257
-91.687
-82.937
-74.131
-65.351
-56.656
-48.117
-39.855
-32.047
-24.909
-18.594
-13.176
-8.693
-5.156
-2.588
-0.978
-0.26
-0.306
-0.977
-2.234
-4.105
-6.637
-9.834
-13.611
-17.818
-22.314
-27.045
-31.999
-37.166
-42.522
-47.969
-53.502
-59.253
-65.261
-71.398
-77.238
-82.007
-84.989
-85.765
-83.896
-78.92
-70.77
-59.618
-46.271
-32.442
-19.64
-8.922
-1.308
2.642
3.281
1.506
-0.553
0.731
8.818
26.83
57.864
104.108
166.266
243.814
334.046
431.927
531.824
627.494
711.811
777.586
818.235
830.135
814.307
773.822
712.87
629.937
516.263
370.375
198.058
19.525
-126.148
-212.057
-227.946
-180.152
-103.916
-31.974
17.916
34.767
29.986
21.546
17.154
23.058
35.228
43.102
43.479
36.11
24.005
12.752
4.355
-1.131
-3.592
-3.306
-0.443
4.375
9.623
14.141
17.483
19.619
20.683
20.507
18.926
16.19
12.916
9.718
6.99
4.871
3.327
2.415
2.241
2.839
4.174
6.154
8.682
11.709
15.228
19.226
23.669
28.489
33.592
38.881
44.256
49.643
54.988
60.245
65.375
70.346
75.13
79.719
84.118
88.329
92.343
96.146
99.724
103.072
106.198
109.108
111.809
114.302
116.584
118.655
120.515
122.164
123.598
124.81
125.791
126.536
127.046
127.323
127.371
127.193
126.791
126.17
125.338
124.3
123.063
121.628
119.997
118.175
116.167
113.982
111.631
109.122
106.464
103.668
100.745
97.706
94.56
91.315
87.973
84.541
81.029
77.452
73.827
70.17
66.487
62.785
59.064
55.327
51.58
47.828
44.07
40.312
36.561
32.833
29.156
25.55
22.031
18.602
15.248
11.973
8.798
5.765
2.946
0.383
-1.916
-3.954
-5.755
-7.325
-8.614
-9.649
-10.535
-11.273
-11.804
-11.903
-11.127
-9.313
-6.63
-3.287
0.439
4.184
7.647
10.1
10.348
7.856
2.777
-4.351
-12.499
-20.776
-28.629
-34.976
-38.227
-37.592
-33.041
-25.25
-15.729
-5.604
4.534
13.74
20.815
25.081
26.311
24.946
22.175
18.785
15.108
11.564
8.547
6.321
5.075
4.647
4.516
4.375
4.126
3.72
3.209
2.6
1.839
0.95
0.025
-0.891
-1.779
-2.659
-3.595
-4.621
-5.733
-6.926
-8.181
-9.484
-10.835
-12.227
-13.656
-15.114
-16.59
-18.076
-19.564
-21.045
-22.511
-23.953
-25.357
-26.716
-28.026
-29.287
-30.506
-31.685
-32.825
-33.928
-34.995
-36.027
-37.03
-38.009
-38.97
-39.924
-40.881
-41.85
-42.844
-43.877
-44.959
-46.1
-47.306
-48.582
-49.934
-51.371
-52.901
-54.535
-56.278
-58.138
-60.122
-62.234
-64.474
-66.839
-69.322
-71.907
-74.587
-77.353
-80.208
-83.164
-86.227
-89.395
-92.659
-96.007
-99.415
-102.856
-106.286
-109.644
-112.876
-115.931
-118.764
-121.351
-123.653
-125.632
-127.24
-128.403
-129.048
-129.14
-128.665
-127.625
-126.052
-123.968
-121.408
-118.473
-115.288
-111.98
-108.678
-105.473
-102.43
-99.655
-97.351
-95.667
-94.619
-93.996
-93.292
-91.955
-89.558
-85.645
-79.605
-71.025
-59.916
-46.915
-33.594
-21.707
-12.57
-7.435
-7.443
-12.991
-23.44
-36.741
-49.075
-56.196
-54.116
-38.585
-5.613
47.759
121.074
210.003
308.909
412.724
521.503
637.23
754.53
860.134
931.938
949.341
908.064
817.627
697.601
563.265
417.605
261.993
101.459
-45.439
-153.404
-208.978
-214.336
-188.819
-155.38
-125.811
-101.252
-75.166
-42.703
-5.49
31.643
62.9
84.975
97.508
101.538
98.978
91.594
80.993
68.535
55.386
43.095
33.002
25.691
21.318
19.552
19.672
21.177
23.466
25.514
26.553
26.217
24.372
21.249
17.253
12.685
7.917
3.454
-0.376
-3.405
-5.552
-6.887
-7.486
-7.388
-6.656
-5.372
-3.575
-1.285
1.475
4.703
8.361
12.381
16.713
21.319
26.17
31.254
36.561
42.078
47.8
53.738
59.89
66.244
72.784
79.486
86.329
93.302
100.391
107.584
114.862
122.208
129.597
137.005
144.404
151.761
159.041
166.207
173.222
180.054
186.672
193.044
199.139
204.924
210.37
215.448
220.132
224.398
228.221
231.579
234.45
236.815
238.657
239.966
240.73
240.943
240.601
239.704
238.261
236.283
233.785
230.78
227.281
223.299
218.852
213.969
208.681
203.03
197.054
190.791
184.281
177.571
170.702
163.715
156.639
149.496
142.311
135.116
127.955
120.889
113.957
107.181
100.555
94.04
87.626
81.337
75.201
69.266
63.557
58.04
52.751
47.809
43.22
38.921
34.672
30.008
24.75
19.056
13.13
7.236
1.718
-3.134
-6.597
-7.467
-5.219
-0.048
7.436
16.143
25.124
33.769
40.924
44.915
44.879
40.761
33.247
23.859
13.722
3.421
-6.102
-13.629
-18.471
-20.42
-19.961
-18.326
-16.335
-14.33
-12.739
-11.966
-12.285
-13.876
-16.553
-19.766
-23.181
-26.681
-30.195
-33.754
-37.34
-40.868
-44.337
-47.809
-51.302
-54.799
-58.248
-61.548
-64.635
-67.477
-70.051
-72.347
-74.347
-76.025
-77.36
-78.333
-78.928
-79.134
-78.945
-78.353
-77.356
-75.955
-74.156
-71.973
-69.419
-66.505
-63.242
-59.639
-55.708
-51.468
-46.942
-42.156
-37.138
-31.915
-26.52
-20.986
-15.352
-9.658
-3.943
1.755
7.396
12.94
18.347
23.575
28.59
33.358
37.849
42.029
45.867
49.331
52.393
55.027
57.209
58.916
60.132
60.84
61.037
60.727
59.911
58.595
56.782
54.468
51.658
48.371
44.62
40.431
35.841
30.889
25.634
20.151
14.499
8.74
2.927
-2.897
-8.677
-14.361
-19.913
-25.274
-30.395
-35.241
-39.759
-43.92
-47.749
-51.26
-54.49
-57.497
-60.287
-62.89
-65.381
-67.808
-70.242
-72.73
-75.253
-77.849
-80.647
-83.659
-86.804
-89.843
-92.24
-93.521
-93.374
-91.401
-87.165
-80.486
-71.458
-60.665
-49.391
-38.959
-30.381
-24.639
-22.574
-24.429
-29.674
-36.835
-43.167
-45.48
-40.764
-25.979
1.547
43.763
101.563
174.064
258.437
349.022
437.438
515.687
577.772
623.016
657.584
686.254
704.828
698.464
642.664
517.296
328.08
104.8
-106.058
-255.817
-327.053
-328.518
-284.424
-229.092
-176.414
-130.442
-95.149
-66.668
-51.612
-53.731
-65.927
-84.762
-101.729
-111.549
-118.372
-123.545
-128.621
-134.232
-136.545
-133.663
-125.999
-114.49
-101.454
-88.661
-76.478
-65.128
-54.909
-46.1
-38.913
-33.263
-28.673
-24.7
-21.24
-18.319
-16.027
-14.421
-13.394
-12.861
-12.843
-13.35
-14.348
-15.751
-17.372
-19.003
-20.533
-21.886
-23.021
-23.928
-24.543
-24.795
-24.621
-23.942
-22.732
-20.988
-18.689
-15.829
-12.433
-8.546
-4.272
0.237
4.887
9.616
14.377
19.156
23.917
28.612
33.206
37.664
41.955
46.06
49.952
53.599
56.994
60.145
63.088
65.885
68.574
71.171
73.689
76.124
78.476
80.746
82.923
84.987
86.925
88.727
90.388
91.909
93.283
94.498
95.537
96.381
97.013
97.424
97.603
97.545
97.246
96.703
95.921
94.91
93.678
92.229
90.57
88.703
86.636
84.376
81.929
79.302
76.503
73.543
70.433
67.186
63.814
60.332
56.752
53.09
49.358
45.573
41.749
37.901
34.046
30.197
26.371
22.584
18.849
15.183
11.597
8.107
4.722
1.456
-1.682
-4.683
-7.539
-10.242
-12.786
-15.165
-17.376
-19.415
-21.279
-22.967
-24.478
-25.813
-26.973
-27.963
-28.785
-29.445
-29.949
-30.303
-30.517
-30.598
-30.557
-30.405
-30.153
-29.813
-29.399
-28.923
-28.399
-27.841
-27.264
-26.682
-26.109
-25.559
-25.046
-24.584
-24.186
-23.864
-23.63
-23.494
-23.466
-23.555
-23.769
-24.115
-24.597
-25.222
-25.991
-26.909
-27.977
-29.195
-30.561
-32.074
-33.728
-35.52
-37.442
-39.486
-41.642
-43.9
-46.248
-48.675
-51.166
-53.707
-56.284
-58.88
-61.48
-64.067
-66.625
-69.136
-71.583
-73.949
-76.22
-78.381
-80.416
-82.314
-84.06
-85.645
-87.058
-88.293
-89.342
-90.198
-90.857
-91.315
-91.573
-91.632
-91.493
-91.16
-90.641
-89.945
-89.085
-88.078
-86.936
-85.678
-84.32
-82.882
-81.386
-79.85
-78.289
-76.72
-75.163
-73.64
-72.177
-70.793
-69.509
-68.345
-67.321
-66.457
-65.769
-65.266
-64.948
-64.819
-64.89
-65.175
-65.698
-66.475
-67.51
-68.805
-70.359
-72.16
-74.193
-76.424
-78.795
-81.263
-83.797
-86.368
-88.966
-91.561
-94.102
-96.548
-98.848
-100.955
-102.84
-104.468
-105.82
-106.921
-107.822
-108.583
-109.28
-109.971
-110.706
-111.555
-112.577
-113.853
-115.458
-117.477
-120.081
-123.347
-127.222
-131.57
-135.971
-139.865
-142.8
-144.26
-143.593
-140.555
-135.343
-128.338
-120.766
-114.441
-110.595
-110.293
-114.957
-123.423
-133.696
-145.862
-156.893
-166.164
-174.396
-173.439
-156.997
-118.101
-48.921
42.873
145.97
250.276
343.926
428.892
512.492
593.289
666.327
716.466
722.507
676.413
581.353
447.531
292.291
131.149
-25.172
-163.379
-268.795
-334.001
-355.766
-336.997
-290.845
-229.362
-165.45
-116.045
-90.984
-94.244
-121.194
-155.689
-183.744
-197.585
-197.134
-190.933
-185.321
-181.847
-179.428
-174.171
-164.423
-151.837
-138.106
-124.813
-112.909
-102.247
-92.743
-84.636
-77.96
-72.446
-67.861
-64.005
-60.726
-58.108
-56.23
-55.052
-54.447
-54.232
-54.191
-54.095
-53.8
-53.191
-52.163
-50.669
-48.683
-46.201
-43.252
-39.877
-36.076
-31.83
-27.102
-21.818
-15.99
-9.7
-3.051
3.807
10.763
17.761
24.739
31.641
38.442
45.126
51.7
58.198
64.622
70.951
77.149
83.152
88.928
94.478
99.814
104.972
109.975
114.828
119.545
124.14
128.615
132.964
137.164
141.176
144.974
148.547
151.884
154.988
157.854
160.47
162.826
164.91
166.71
168.216
169.417
170.298
170.851
171.071
170.96
170.526
169.775
168.712
167.344
165.677
163.722
161.488
158.986
156.223
153.213
149.968
146.507
142.846
139.005
135.002
130.858
126.595
122.232
117.792
113.295
108.761
104.212
99.665
95.141
90.657
86.232
81.88
77.617
73.457
69.412
65.493
61.71
58.07
54.581
51.246
48.071
45.058
42.209
39.524
37.003
34.644
32.444
30.4
28.507
26.757
25.144
23.66
22.296
21.044
19.894
18.836
17.86
16.956
16.115
15.326
14.582
13.872
13.189
12.526
11.877
11.236
10.599
9.962
9.322
8.677
8.025
7.364
6.695
6.016
5.328
4.63
3.924
3.211
2.493
1.77
1.045
0.319
-0.406
-1.129
-1.847
-2.56
-3.267
-3.964
-4.652
-5.327
-5.989
-6.636
-7.267
-7.881
-8.478
-9.057
-9.619
-10.166
-10.7
-11.223
-11.737
-12.244
-12.747
-13.248
-13.75
-14.254
-14.762
-15.275
-15.795
-16.322
-16.857
-17.4
-17.951
-18.507
-19.067
-19.629
-20.189
-20.744
-21.289
-21.821
-22.335
-22.828
-23.297
-23.737
-24.145
-24.519
-24.855
-25.15
-25.403
-25.609
-25.765
-25.87
-25.92
-25.915
-25.852
-25.732
-25.557
-25.329
-25.056
-24.744
-24.4
-24.034
-23.654
-23.271
-22.894
-22.532
-22.19
-21.877
-21.606
-21.388
-21.236
-21.163
-21.178
-21.292
-21.518
-21.864
-22.336
-22.939
-23.668
-24.53
-25.536
-26.705
-28.063
-29.633
-31.422
-33.441
-35.703
-38.208
-40.95
-43.906
-47.028
-50.275
-53.613
-57.014
-60.456
-63.894
-67.271
-70.522
-73.574
-76.376
-78.9
-81.11
-82.984
-84.522
-85.725
-86.663
-87.469
-88.267
-89.203
-90.417
-92.003
-94.138
-97.075
-100.982
-105.933
-111.8
-118.187
-124.692
-130.995
-136.666
-141.194
-144.169
-145.38
-145.257
-144.949
-145.791
-148.943
-155.301
-165.602
-180.26
-199.081
-220.634
-242.008
-259.285
-268.522
-266.524
-249.948
-215.599
-161.594
-87.298
4.335
106.15
212.938
321.122
427.695
532.609
627.652
697.712
731.07
716.924
656.477
562.327
442.121
303.423
152.386
-5.435
-151.844
-266.679
-337.914
-363.791
-358.832
-340.726
-319.873
-299.896
-276.734
-247.843
-216.065
-185.574
-161.135
-144.835
-135.555
-131.386
-130.168
-129.752
-128.257
-124.685
-118.82
-110.972
-101.966
-92.578
-83.389
-75.193
-68.829
-64.704
-62.943
-63.332
-65.325
-68.511
-72.553
-77.065
-81.72
-86.201
-90.236
-93.691
-96.513
-98.657
-100.113
-100.836
-100.752
-99.841
-98.086
-95.534
-92.32
-88.543
-84.301
-79.7
-74.822
-69.777
-64.674
-59.568
-54.473
-49.397
-44.326
-39.274
-34.272
-29.332
-24.469
-19.68
-14.927
-10.195
-5.472
-0.743
4.003
8.782
13.616
18.502
23.417
28.338
33.24
38.105
42.922
47.672
52.336
56.895
61.327
65.612
69.733
73.669
77.4
80.905
84.161
87.148
89.855
92.268
94.373
96.159
97.615
98.73
99.5
99.918
99.978
99.678
99.015
97.991
96.611
94.878
92.8
90.387
87.65
84.601
81.255
77.629
73.74
69.607
65.253
60.698
55.966
51.08
46.064
40.943
35.743
30.488
25.203
19.911
14.638
9.408
4.245
-0.828
-5.79
-10.625
-15.317
-19.849
-24.208
-28.382
-32.361
-36.137
-39.704
-43.054
-46.181
-49.08
-51.749
-54.194
-56.42
-58.436
-60.248
-61.853
-63.257
-64.466
-65.488
-66.332
-67.005
-67.513
-67.868
-68.086
-68.186
-68.193
-68.12
-67.973
-67.755
-67.461
-67.107
-66.726
-66.352
-66.026
-65.762
-65.533
-65.335
-65.178
-65.064
-65.035
-65.063
-65.016
-64.934
-64.998
-65.363
-66.254
-67.652
-69.185
-70.714
-72.351
-73.891
-74.958
-75.117
-73.661
-70.579
-66.705
-62.48
-58.016
-53.708
-49.937
-47.297
-46.852
-48.682
-51.785
-55.56
-59.65
-63.636
-67.374
-70.423
-71.865
-71.597
-70.323
-68.506
-66.537
-64.677
-62.841
-61.183
-60.144
-59.793
-59.872
-60.194
-60.547
-60.846
-61.219
-61.685
-62.167
-62.653
-63.159
-63.706
-64.346
-65.079
-65.85
-66.623
-67.369
-68.069
-68.726
-69.333
-69.876
-70.34
-70.709
-70.97
-71.109
-71.115
-70.979
-70.69
-70.238
-69.616
-68.819
-67.844
-66.691
-65.356
-63.832
-62.113
-60.195
-58.074
-55.755
-53.24
-50.532
-47.637
-44.562
-41.319
-37.924
-34.392
-30.742
-26.991
-23.161
-19.272
-15.35
-11.419
-7.498
-3.611
0.221
3.973
7.617
11.127
14.479
17.65
20.62
23.366
25.866
28.104
30.072
31.759
33.155
34.239
34.981
35.357
35.357
34.971
34.199
33.052
31.542
29.701
27.586
25.252
22.752
20.131
17.416
14.646
11.876
9.169
6.604
4.24
2.105
0.234
-1.351
-2.68
-3.799
-4.806
-5.857
-7.061
-8.528
-10.393
-12.756
-15.751
-19.518
-24.134
-29.714
-36.418
-44.249
-53.117
-62.779
-72.677
-82.273
-91.149
-98.71
-104.315
-107.625
-108.508
-107.318
-105.149
-102.942
-101.204
-100.519
-101.416
-103.93
-107.632
-111.133
-111.54
-106.01
-92.444
-68.455
-31.618
19.809
86.966
167.634
255.376
344.686
431.948
517.787
605.523
691.22
762.714
801.819
792.449
731.287
628.685
501.313
361.341
216.822
72.274
-64.343
-174.948
-245.11
-268.037
-247.8
-201.266
-146.929
-100.704
-71.691
-63.092
-71.403
-86.394
-100.819
-108.106
-106.275
-101.135
-95.462
-90.53
-86.721
-80.876
-71.954
-61.045
-48.984
-37.137
-26.549
-17.433
-9.952
-4.277
-0.277
2.317
3.714
4.135
3.78
2.794
1.35
-0.333
-2.043
-3.585
-4.797
-5.565
-5.81
-5.486
-4.566
-3.045
-0.961
1.631
4.675
8.114
11.907
16.017
20.38
24.922
29.56
34.203
38.791
43.285
47.657
51.892
55.986
59.94
63.776
67.525
71.205
74.829
78.405
81.931
85.417
88.873
92.306
95.724
99.129
102.521
105.898
109.259
112.597
115.901
119.161
122.361
125.492
128.543
131.507
134.375
137.139
139.789
142.317
144.714
146.968
149.068
151.002
152.754
154.312
155.663
156.794
157.692
158.348
158.75
158.89
158.762
158.36
157.679
156.718
155.474
153.95
152.146
150.067
147.717
145.101
142.227
139.103
135.737
132.138
128.317
124.285
120.053
115.634
111.042
106.291
101.396
96.373
91.242
86.02
80.728
75.386
70.015
64.638
59.274
53.946
48.674
43.478
38.375
33.385
28.523
23.804
19.243
14.85
10.637
6.612
2.784
-0.841
-4.257
-7.461
-10.449
-13.218
-15.766
-18.093
-20.196
-22.078
-23.74
-25.183
-26.411
-27.429
-28.243
-28.86
-29.289
-29.538
-29.619
-29.543
-29.322
-28.969
-28.497
-27.919
-27.249
-26.501
-25.687
-24.819
-23.91
-22.97
-22.01
-21.039
-20.065
-19.096
-18.141
-17.206
-16.297
-15.423
-14.589
-13.804
-13.072
-12.402
-11.8
-11.272
-10.824
-10.462
-10.191
-10.015
-9.937
-9.962
-10.09
-10.323
-10.662
-11.105
-11.651
-12.298
-13.043
-13.883
-14.813
-15.831
-16.933
-18.115
-19.375
-20.708
-22.114
-23.587
-25.127
-26.729
-28.39
-30.105
-31.87
-33.678
-35.522
-37.396
-39.291
-41.196
-43.102
-44.999
-46.873
-48.713
-50.507
-52.241
-53.902
-55.48
-56.96
-58.333
-59.588
-60.716
-61.707
-62.553
-63.246
-63.78
-64.146
-64.336
-64.344
-64.161
-63.782
-63.198
-62.404
-61.394
-60.163
-58.709
-57.027
-55.117
-52.977
-50.612
-48.023
-45.216
-42.198
-38.977
-35.564
-31.971
-28.215
-24.31
-20.275
-16.126
-11.884
-7.565
-3.19
1.222
5.654
10.088
14.508
18.894
23.223
27.471
31.612
35.621
39.472
43.141
46.603
49.838
52.829
55.563
58.03
60.218
62.118
63.715
64.995
65.951
66.581
66.89
66.896
66.615
66.06
65.254
64.211
62.944
61.46
59.745
57.785
55.575
53.11
50.403
47.494
44.405
41.165
37.797
34.281
30.639
26.924
23.193
19.542
16.04
12.703
9.631
6.979
4.78
3.019
1.511
-0.158
-2.155
-4.405
-6.855
-9.383
-11.802
-13.984
-15.428
-15.239
-13.042
-8.961
-3.353
3.127
9.965
16.863
23.09
27.5
29.399
28.521
24.823
18.518
9.548
-2.389
-17.168
-34.201
-52.828
-72.156
-90.74
-106.693
-117.545
-120.264
-112.053
-90.7
-54.241
-1.271
68.16
152.633
247.859
346.273
440.06
523.702
596.937
662.251
720.576
766.486
782.992
752.87
664.955
516.973
327.973
125.229
-64.552
-213.699
-311.279
-359.694
-364.954
-339.021
-290.826
-225.153
-151.561
-85.008
-39.644
-24.73
-38.336
-65.898
-93.161
-111.928
-121.881
-130.239
-141.461
-155.487
-169.571
-178.891
-181.463
-178.206
-170.6
-160.902
-151.113
-142.13
-134.74
-129.494
-126.332
-125.086
-125.477
-126.956
-128.911
-130.947
-132.735
-134.006
-134.714
-134.806
-134.222
-133.001
-131.172
-128.726
-125.671
-122.018
-117.754
-112.907
-107.523
-101.635
-95.308
-88.616
-81.633
-74.455
-67.155
-59.783
-52.386
-44.997
-37.649
-30.371
-23.175
-16.058
-9.019
-2.063
4.81
11.59
18.282
24.892
31.423
37.878
44.251
50.533
56.716
62.794
68.76
74.603
80.307
85.861
91.253
96.482
101.541
106.424
111.12
115.616
119.9
123.962
127.789
131.363
134.666
137.678
140.385
142.783
144.86
146.603
147.991
148.997
149.607
149.817
149.628
149.04
148.06
146.705
145.009
143.029
140.817
138.403
135.796
132.985
129.968
126.744
123.316
119.688
115.834
111.724
107.336
102.659
97.668
92.318
86.523
80.154
73.122
65.383
56.94
47.837
38.12
27.85
17.111
6.007
-5.327
-16.76
-28.187
-39.512
-50.614
-61.343
-71.495
-80.818
-89.11
-96.215
-102.018
-106.458
-109.499
-111.141
-111.424
-110.427
-108.232
-104.903
-100.495
-95.074
-88.741
-81.626
-73.902
-65.776
-57.445
-49.122
-41.01
-33.279
-26.064
-19.458
-13.533
-8.344
-3.985
-0.577
1.796
3.083
3.26
2.318
0.258
-2.928
-7.185
-12.379
-18.357
-24.951
-32.018
-39.45
-47.115
-54.852
-62.446
-69.662
-76.335
-82.357
-87.629
-92.04
-95.446
-97.661
-98.577
-98.183
-96.486
-93.548
-89.439
-84.215
-77.99
-70.934
-63.248
-55.133
-46.728
-38.099
-29.313
-20.481
-11.742
-3.302
4.649
11.971
18.507
24.13
28.847
32.689
35.591
37.554
38.569
38.559
37.654
35.975
33.331
29.589
24.988
19.712
14.146
8.797
3.425
-2.32
-8.371
-14.825
-22.03
-30.128
-39.628
-51.086
-63.898
-77.381
-91.223
-104.916
-118.116
-130.695
-142.097
-151.804
-160.2
-167.606
-174.106
-179.871
-184.723
-188.469
-191.278
-193.329
-194.512
-194.778
-194.159
-192.69
-190.596
-188.078
-185.206
-182.01
-178.515
-174.749
-170.768
-166.69
-162.624
-158.623
-154.707
-150.866
-147.086
-143.378
-139.739
-136.096
-132.368
-128.496
-124.436
-120.219
-115.914
-111.593
-107.333
-103.166
-99.111
-95.233
-91.632
-88.428
-85.721
-83.557
-81.963
-81.03
-80.838
-81.437
-82.854
-85.012
-87.804
-91.106
-94.765
-98.669
-102.708
-106.736
-110.607
-114.17
-117.282
-119.854
-121.806
-123
-123.337
-122.752
-121.21
-118.781
-115.56
-111.663
-107.264
-102.514
-97.556
-92.544
-87.599
-82.821
-78.321
-74.174
-70.454
-67.269
-64.667
-62.671
-61.289
-60.468
-60.147
-60.237
-60.588
-61.041
-61.449
-61.695
-61.712
-61.483
-60.993
-60.243
-59.263
-58.108
-56.895
-55.772
-54.901
-54.434
-54.528
-55.38
-57.174
-60.155
-64.63
-70.702
-78.321
-87.294
-97.185
-107.613
-118.35
-128.906
-138.581
-146.992
-153.929
-159.561
-164.704
-169.866
-175.094
-180.629
-186.76
-193.286
-199.643
-205.058
-207.899
-206.171
-198.71
-182.696
-153.171
-109.22
-51.93
15.326
81.734
144.046
208.098
279.285
370.441
486.105
613.509
738.313
839.749
898.623
906.875
858.503
752.175
590.721
387.373
167.615
-36.087
-186.389
-266.289
-282.185
-255.097
-218.661
-192.147
-177.501
-169.372
-156.365
-135.573
-111.911
-90.549
-76.964
-72.933
-77.321
-88.53
-103.797
-120.081
-135.036
-147.196
-156.18
-161.913
-164.009
-162.475
-157.879
-151.434
-144.74
-138.74
-133.678
-129.644
-126.746
-125.024
-124.425
-124.549
-124.686
-124.376
-123.379
-121.569
-118.944
-115.465
-111.071
-105.796
-99.748
-93.015
-85.682
-77.805
-69.401
-60.518
-51.221
-41.587
-31.721
-21.727
-11.709
-1.754
8.071
17.709
27.109
36.231
45.039
53.513
61.647
69.435
76.86
83.91
90.572
96.845
102.74
108.267
113.439
118.265
122.752
126.91
130.753
134.295
137.548
140.522
143.226
145.674
147.884
149.875
151.664
153.269
154.706
155.993
157.146
158.182
159.115
159.956
160.716
161.404
162.028
162.594
163.107
163.568
163.978
164.337
164.641
164.887
165.068
165.175
165.198
165.127
164.949
164.652
164.221
163.64
162.895
161.969
160.847
159.515
157.956
156.156
154.102
151.782
149.183
146.298
143.117
139.634
135.847
131.753
127.353
122.65
117.652
112.365
106.8
100.972
94.896
88.591
82.075
75.373
68.509
61.51
54.405
47.223
39.997
32.76
25.546
18.389
11.325
4.388
-2.385
-8.961
-15.306
-21.386
-27.169
-32.626
-37.728
-42.448
-46.763
-50.65
-54.092
-57.073
-59.58
-61.605
-63.141
-64.187
-64.743
-64.815
-64.411
-63.543
-62.227
-60.481
-58.328
-55.793
-52.906
-49.697
-46.202
-42.455
-38.496
-34.363
-30.097
-25.742
-21.34
-16.934
-12.568
-8.285
-4.127
-0.136
3.648
7.187
10.447
13.394
15.999
18.234
20.077
21.508
22.511
23.072
23.182
22.835
22.031
20.773
19.067
16.924
14.36
11.393
8.047
4.35
0.333
-3.974
-8.538
-13.32
-18.282
-23.383
-28.58
-33.832
-39.095
-44.322
-49.465
-54.479
-59.318
-63.943
-68.314
-72.393
-76.147
-79.546
-82.566
-85.186
-87.392
-89.161
-90.477
-91.325
-91.692
-91.581
-91.002
-89.957
-88.463
-86.538
-84.208
-81.509
-78.486
-75.158
-71.555
-67.703
-63.626
-59.372
-54.986
-50.512
-46.007
-41.505
-37.043
-32.677
-28.444
-24.364
-20.465
-16.737
-13.161
-9.765
-6.553
-3.535
-0.753
1.785
4.054
6.015
7.646
8.905
9.742
10.142
10.077
9.496
8.38
6.657
4.228
1.064
-2.909
-7.736
-13.379
-19.816
-26.984
-34.763
-43.035
-51.649
-60.406
-69.154
-77.749
-86.023
-93.859
-101.079
-107.468
-112.875
-117.097
-119.98
-121.465
-121.504
-120.097
-117.337
-113.334
-108.238
-102.271
-95.595
-88.335
-80.62
-72.526
-64.176
-55.705
-47.199
-38.765
-30.476
-22.344
-14.381
-6.564
1.217
9.073
17.127
25.547
34.419
43.772
53.614
63.899
74.574
85.557
96.698
107.823
118.738
129.245
139.163
148.302
156.425
163.327
168.842
172.814
175.154
175.82
174.789
172.09
167.793
162.041
155.05
147.082
138.419
129.309
119.969
110.609
101.428
92.556
84.046
75.931
68.23
60.97
54.175
47.825
41.84
36.084
30.406
24.59
18.345
11.496
3.987
-4.042
-12.168
-19.845
-26.547
-31.678
-34.616
-35.003
-32.796
-28.517
-23.354
-18.62
-15.458
-14.792
-17.306
-23.3
-32.442
-43.188
-52.798
-57.939
-55.18
-41.586
-14.511
28.353
88.358
165.213
256.766
359.113
467.073
575.286
677.855
767.984
838.866
884.877
901.67
888.507
848.66
783.158
693.207
579.766
440.688
284.787
129.086
-9.873
-112.462
-173.807
-204.971
-216.373
-221.153
-224.685
-221.569
-210.77
-193.216
-172.027
-153.721
-140.925
-133.264
-129.909
-129.033
-128.96
-128.358
-125.574
-119.642
-110.702
-99.412
-86.712
-73.464
-60.332
-48.039
-37.379
-28.814
-22.425
-18.051
-15.334
-13.96
-13.723
-14.374
-15.661
-17.348
-19.177
-20.93
-22.44
-23.57
-24.228
-24.357
-23.913
-22.884
-21.309
-19.247
-16.786
-14.004
-10.964
-7.72
-4.325
-0.845
2.642
6.059
9.339
12.438
15.338
18.032
20.523
22.827
24.975
27.011
28.988
30.948
32.923
34.943
37.031
39.215
41.523
43.978
46.598
49.4
52.39
55.575
58.956
62.528
66.282
70.204
74.275
78.477
82.79
87.194
91.667
96.184
100.718
105.24
109.723
114.133
118.439
122.606
126.599
130.384
133.927
137.194
140.152
142.772
145.022
146.877
148.31
149.301
149.829
149.879
149.438
148.497
147.051
145.096
142.636
139.675
136.222
132.29
127.895
123.057
117.799
112.147
106.13
99.78
93.13
86.217
79.078
71.752
64.279
56.701
49.059
41.395
33.752
26.17
18.689
11.35
4.19
-2.755
-9.453
-15.871
-21.981
-27.757
-33.177
-38.219
-42.868
-47.11
-50.933
-54.33
-57.298
-59.834
-61.942
-63.625
-64.891
-65.752
-66.219
-66.309
-66.038
-65.425
-64.492
-63.259
-61.75
-59.989
-58.001
-55.811
-53.444
-50.926
-48.282
-45.537
-42.715
-39.84
-36.934
-34.019
-31.114
-28.24
-25.413
-22.651
-19.968
-17.379
-14.896
-12.531
-10.294
-8.194
-6.238
-4.432
-2.781
-1.289
0.04
1.205
2.205
3.039
3.708
4.213
4.554
4.735
4.757
4.622
4.333
3.894
3.306
2.574
1.698
0.684
-0.468
-1.755
-3.174
-4.722
-6.398
-8.198
-10.12
-12.16
-14.315
-16.581
-18.954
-21.43
-24.003
-26.668
-29.42
-32.252
-35.158
-38.132
-41.166
-44.252
-47.384
-50.553
-53.751
-56.972
-60.205
-63.444
-66.679
-69.903
-73.108
-76.285
-79.427
-82.525
-85.573
-88.562
-91.486
-94.339
-97.116
-99.809
-102.416
-104.932
-107.354
-109.68
-111.908
-114.039
-116.073
-118.011
-119.857
-121.612
-123.28
-124.865
-126.373
-127.807
-129.172
-130.473
-131.715
-132.902
-134.038
-135.127
-136.173
-137.179
-138.147
-139.077
-139.972
-140.831
-141.652
-142.434
-143.173
-143.866
-144.508
-145.094
-145.619
-146.076
-146.457
-146.755
-146.962
-147.068
-147.064
-146.939
-146.682
-146.283
-145.732
-145.017
-144.13
-143.061
-141.803
-140.348
-138.692
-136.831
-134.762
-132.484
-129.997
-127.305
-124.413
-121.329
-118.061
-114.622
-111.024
-107.288
-103.434
-99.485
-95.462
-91.391
-87.297
-83.209
-79.153
-75.154
-71.233
-67.417
-63.729
-60.198
-56.851
-53.714
-50.816
-48.183
-45.84
-43.81
-42.111
-40.754
-39.746
-39.091
-38.795
-38.869
-39.327
-40.177
-41.422
-43.059
-45.076
-47.449
-50.141
-53.102
-56.266
-59.578
-62.984
-66.437
-69.898
-73.325
-76.68
-79.927
-83.014
-85.888
-88.503
-90.816
-92.812
-94.531
-96.005
-97.296
-98.487
-99.615
-100.746
-101.971
-103.347
-104.948
-106.835
-108.993
-111.479
-114.455
-117.909
-121.706
-125.529
-128.7
-130.62
-130.912
-129.012
-124.361
-116.908
-106.877
-95.059
-83.174
-72.671
-64.543
-59.978
-59.686
-63.181
-69.409
-76.223
-79.873
-76.986
-64.611
-39.428
0.872
56.811
127.831
211.556
303.123
397.414
488.916
570.79
636.396
680.003
696.67
684.693
646.725
586.043
505.159
403.31
277.633
130.934
-24.275
-164.889
-267.227
-318.668
-322.564
-297.071
-260.99
-226.06
-195.231
-163.806
-129.752
-94.713
-61.84
-36.528
-21.533
-15.914
-17.748
-23.476
-29.133
-32.868
-33.905
-31.507
-25.32
-15.421
-2.212
12.917
27.835
41.271
52.678
61.649
68.02
71.662
72.463
70.762
67.309
62.665
57.189
51.102
44.448
37.367
30.096
22.835
15.748
8.966
2.591
-3.222
-8.258
-12.346
-15.374
-17.289
-18.105
-17.847
-16.537
-14.205
-10.896
-6.692
-1.71
3.914
10.026
16.499
23.229
30.112
37.052
43.988
50.9
57.779
64.637
71.455
78.183
84.804
91.324
97.773
104.194
110.639
117.152
123.796
130.658
137.768
145.109
152.602
160.089
167.45
174.595
181.458
188.014
194.21
199.956
205.182
209.823
213.801
217.043
219.428
220.779
221.013
220.123
218.175
215.339
211.736
207.441
202.537
197.087
191.16
184.852
178.221
171.291
164.125
156.801
149.448
142.262
135.358
128.781
122.531
116.532
110.728
105.093
99.567
94.081
88.601
83.1
77.598
72.176
66.876
61.726
56.742
51.877
47.126
42.52
38.085
33.88
29.986
26.477
23.481
21.152
19.57
18.774
18.758
19.429
20.701
22.471
24.59
26.953
29.464
32.017
34.548
36.991
39.228
41.136
42.546
43.244
43.101
42.033
39.984
36.99
33.115
28.459
23.213
17.533
11.539
5.342
-0.992
-7.411
-13.814
-20.098
-26.142
-31.783
-36.903
-41.416
-45.235
-48.343
-50.753
-52.517
-53.754
-54.574
-55.041
-55.209
-55.103
-54.731
-54.127
-53.317
-52.322
-51.192
-49.967
-48.683
-47.387
-46.098
-44.815
-43.525
-42.189
-40.769
-39.255
-37.644
-35.947
-34.187
-32.385
-30.57
-28.782
-27.054
-25.41
-23.876
-22.467
-21.205
-20.117
-19.231
-18.575
-18.178
-18.062
-18.242
-18.729
-19.529
-20.643
-22.067
-23.792
-25.807
-28.104
-30.674
-33.51
-36.604
-39.941
-43.504
-47.273
-51.221
-55.321
-59.541
-63.847
-68.204
-72.572
-76.919
-81.22
-85.446
-89.573
-93.565
-97.381
-100.989
-104.37
-107.508
-110.393
-113.021
-115.385
-117.506
-119.425
-121.184
-122.824
-124.367
-125.802
-127.128
-128.35
-129.471
-130.508
-131.446
-132.227
-132.815
-133.189
-133.321
-133.203
-132.769
-131.889
-130.459
-128.398
-125.664
-122.289
-118.285
-113.642
-108.397
-102.608
-96.394
-89.97
-83.508
-77.127
-70.964
-65.135
-59.836
-55.372
-52.004
-49.922
-49.281
-50.153
-52.625
-56.839
-62.838
-70.578
-79.937
-90.657
-102.514
-115.351
-128.977
-143.179
-157.67
-172.039
-185.902
-198.978
-211.005
-221.763
-231.029
-238.497
-243.968
-247.361
-248.663
-247.979
-245.405
-240.989
-234.818
-227.044
-217.872
-207.594
-196.518
-184.846
-172.772
-160.485
-148.175
-136.098
-124.455
-113.353
-102.86
-92.996
-83.775
-75.247
-67.435
-60.303
-53.783
-47.763
-42.117
-36.787
-31.741
-26.945
-22.368
-17.945
-13.626
-9.411
-5.312
-1.334
2.536
6.347
10.138
13.904
17.621
21.24
24.72
28.056
31.264
34.361
37.35
40.214
42.951
45.585
48.115
50.483
52.585
54.258
55.382
55.9
55.758
54.889
53.205
50.602
46.992
42.357
36.676
29.864
21.931
12.984
3.326
-6.414
-15.551
-23.516
-29.713
-33.519
-34.644
-33.079
-29.256
-24.421
-19.844
-16.453
-15.293
-17.229
-22.325
-29.975
-38.629
-45.26
-46.637
-39.859
-21.719
10.616
58.6
122.385
200.807
290.086
385.061
480.639
568.473
639.74
689.577
712.119
708.381
685.374
640.779
574.228
478.744
339.551
164.594
-29.019
-212.682
-344.954
-411.686
-418.165
-382.762
-338.771
-302.787
-276.709
-257.953
-237.289
-212.273
-187.009
-165.141
-150.779
-145.286
-146.77
-152.433
-158.974
-164.064
-166.869
-167.184
-164.971
-160.076
-152.589
-143.372
-133.916
-125.464
-118.599
-113.428
-109.829
-107.821
-107.434
-108.348
-109.935
-111.572
-112.797
-113.409
-113.401
-112.722
-111.296
-109.103
-106.169
-102.57
-98.41
-93.737
-88.564
-82.907
-76.788
-70.267
-63.432
-56.369
-49.172
-41.902
-34.592
-27.267
-19.946
-12.636
-5.346
1.932
9.224
16.545
23.9
31.284
38.687
46.108
53.556
61.041
68.566
76.129
83.717
91.32
98.925
106.518
114.076
121.568
128.957
136.207
143.288
150.171
156.826
163.222
169.324
175.098
180.515
185.549
190.168
194.336
198.004
201.125
203.666
205.614
206.966
207.715
207.852
207.37
206.278
204.594
202.325
199.459
195.959
191.786
186.926
181.392
175.218
168.444
161.086
153.137
144.584
135.438
125.714
115.418
104.527
93.003
80.857
68.168
55.078
41.731
28.232
14.652
1.04
-12.546
-26.017
-39.271
-52.215
-64.784
-76.902
-88.471
-99.343
-109.357
-118.421
-126.54
-133.797
-140.271
-145.997
-150.985
-155.234
-158.767
-161.629
-163.855
-165.458
-166.436
-166.813
-166.648
-166.054
-165.152
-164.008
-162.621
-160.937
-158.915
-156.549
-153.851
-150.835
-147.494
-143.826
-139.856
-135.637
-131.228
-126.668
-121.972
-117.127
-112.121
-106.971
-101.719
-96.429
-91.153
-85.932
-80.8
-75.796
-70.966
-66.345
-61.949
-57.775
-53.816
-50.076
-46.563
-43.291
-40.27
-37.497
-34.969
-32.676
-30.61
-28.763
-27.12
-25.667
-24.381
-23.248
-22.255
-21.392
-20.651
-20.017
-19.48
-19.025
-18.641
-18.319
-18.046
-17.809
-17.596
-17.399
-17.208
-17.018
-16.823
-16.617
-16.398
-16.164
-15.914
-15.65
-15.371
-15.083
-14.786
-14.488
-14.192
-13.905
-13.635
-13.389
-13.174
-13
-12.875
-12.809
-12.81
-12.886
-13.046
-13.294
-13.639
-14.085
-14.635
-15.295
-16.065
-16.948
-17.946
-19.059
-20.286
-21.625
-23.073
-24.627
-26.28
-28.028
-29.862
-31.775
-33.758
-35.802
-37.898
-40.035
-42.204
-44.394
-46.593
-48.791
-50.975
-53.136
-55.26
-57.335
-59.351
-61.295
-63.158
-64.932
-66.609
-68.18
-69.639
-70.982
-72.204
-73.3
-74.267
-75.101
-75.8
-76.36
-76.782
-77.064
-77.207
-77.211
-77.075
-76.802
-76.392
-75.846
-75.162
-74.34
-73.379
-72.277
-71.033
-69.645
-68.109
-66.423
-64.589
-62.608
-60.48
-58.204
-55.78
-53.208
-50.488
-47.619
-44.597
-41.412
-38.057
-34.527
-30.82
-26.935
-22.871
-18.624
-14.194
-9.586
-4.808
0.131
5.232
10.503
15.951
21.57
27.331
33.198
39.139
45.122
51.117
57.077
62.948
68.689
74.284
79.743
85.083
90.297
95.355
100.202
104.787
109.086
113.099
116.835
120.283
123.431
126.288
128.898
131.326
133.593
135.656
137.41
138.75
139.614
139.975
139.842
139.221
138.091
136.423
134.203
131.457
128.205
124.455
120.148
115.195
109.575
103.348
96.672
89.721
82.615
75.445
68.251
61.065
53.956
47.03
40.365
33.973
27.824
21.841
16.088
10.796
6.061
1.759
-2.5
-7.189
-12.506
-18.256
-24.214
-30.449
-36.912
-43.227
-48.397
-50.915
-49.804
-45.056
-37.109
-26.133
-12.375
3.516
19.87
33.898
43.38
47.542
46.486
40.254
28.988
13.463
-3.933
-18.884
-27.037
-25.288
-11.056
18.471
65.697
132.432
217.075
313.586
417.309
524.816
634.122
745.99
851.956
936.363
984.984
984.248
935.919
854.206
749.923
630.223
492.871
333.835
163.054
3.839
-116.778
-182.205
-196.568
-181.601
-160.254
-145.044
-136.211
-125.746
-109.137
-88.429
-68.092
-53.395
-46.272
-45.806
-51.017
-60.044
-70.467
-79.911
-86.782
-90.653
-91.838
-90.676
-87.057
-81.063
-73.542
-65.917
-59.231
-53.885
-49.856
-46.929
-45.157
-44.636
-45.097
-45.97
-46.722
-46.961
-46.475
-45.24
-43.177
-40.179
-36.233
-31.371
-25.664
-19.213
-12.091
-4.333
4.017
12.905
22.271
32.017
42.04
52.24
62.509
72.772
82.973
93.063
103.004
112.768
122.334
131.703
140.885
149.878
158.673
167.26
175.626
183.776
191.713
199.438
206.95
214.246
221.32
228.167
234.783
241.158
247.283
253.146
258.733
264.037
269.051
273.77
278.189
282.303
286.109
289.604
292.785
295.65
298.196
300.42
302.319
303.889
305.13
306.04
306.617
306.86
306.77
306.346
305.591
304.504
303.089
301.347
299.282
296.898
294.2
291.192
287.882
284.274
280.376
276.195
271.739
267.014
262.03
256.794
251.314
245.599
239.657
233.496
227.124
220.552
213.786
206.837
199.713
192.424
184.979
177.386
169.656
161.798
153.821
145.736
137.55
129.274
120.918
112.491
104.002
95.461
86.876
78.257
69.614
60.955
52.29
43.628
34.98
26.355
17.763
9.216
0.725
-7.701
-16.049
-24.309
-32.467
-40.511
-48.43
-56.211
-63.841
-71.308
-78.598
-85.7
-92.601
-99.29
-105.755
-111.987
-117.974
-123.707
-129.178
-134.377
-139.297
-143.931
-148.273
-152.318
-156.06
-159.496
-162.625
-165.444
-167.954
-170.154
-172.047
-173.636
-174.924
-175.917
-176.621
-177.043
-177.192
-177.077
-176.709
-176.1
-175.264
-174.212
-172.96
-171.522
-169.913
-168.15
-166.247
-164.221
-162.089
-159.866
-157.571
-155.218
-152.825
-150.408
-147.984
-145.567
-143.173
-140.817
-138.512
-136.273
-134.112
-132.041
-130.072
-128.215
-126.481
-124.877
-123.411
-122.09
-120.918
-119.901
-119.041
-118.339
-117.797
-117.414
-117.188
-117.117
-117.199
-117.427
-117.798
-118.305
-118.94
-119.695
-120.562
-121.531
-122.591
-123.731
-124.941
-126.207
-127.518
-128.862
-130.225
-131.595
-132.958
-134.301
-135.611
-136.876
-138.082
-139.219
-140.275
-141.24
-142.104
-142.859
-143.497
-144.01
-144.393
-144.64
-144.748
-144.712
-144.532
-144.206
-143.736
-143.123
-142.371
-141.483
-140.466
-139.325
-138.07
-136.708
-135.249
-133.702
-132.08
-130.395
-128.661
-126.891
-125.1
-123.303
-121.516
-119.754
-118.032
-116.366
-114.768
-113.253
-111.835
-110.526
-109.339
-108.285
-107.374
-106.618
-106.025
-105.604
-105.363
-105.305
-105.437
-105.76
-106.278
-106.992
-107.9
-109.001
-110.293
-111.774
-113.445
-115.301
-117.339
-119.55
-121.93
-124.469
-127.158
-129.982
-132.923
-135.962
-139.084
-142.274
-145.518
-148.802
-152.109
-155.424
-158.732
-162.018
-165.263
-168.444
-171.533
-174.506
-177.348
-180.048
-182.61
-185.036
-187.316
-189.443
-191.402
-193.172
-194.729
-196.034
-197.031
-197.678
-197.939
-197.788
-197.218
-196.213
-194.751
-192.813
-190.36
-187.363
-183.8
-179.669
-174.997
-169.844
-164.286
-158.413
-152.331
-146.149
-140
-134.024
-128.342
-123.079
-118.32
-114.169
-110.847
-108.454
-106.937
-106.053
-105.216
-103.789
-101.345
-97.381
-91.286
-82.879
-72.336
-60.382
-48.763
-39.215
-32.958
-31.206
-34.767
-43.41
-56.092
-70.578
-82.836
-88.59
-83.991
-65.17
-29.197
25.296
98.209
187.469
288.286
394.493
499.367
595.151
674.168
729.62
755.385
748.903
712.589
649.808
565.182
459.254
327.311
172.723
5.62
-152.894
-271.956
-335.981
-344.135
-309.39
-259.204
-211.248
-172.371
-143.938
-118.668
-93.443
-70.636
-52.887
-44.071
-44.815
-52.001
-61.646
-70.232
-76.056
-78.744
-78.123
-73.999
-66.531
-56.648
-46.089
-36.383
-28.248
-21.887
-17.232
-14.294
-13.124
-13.457
-14.658
-16.13
-17.485
-18.499
-19.149
-19.402
-19.15
-18.373
-17.117
-15.431
-13.387
-11.048
-8.424
-5.545
-2.458
0.797
4.149
7.524
10.856
14.07
17.117
19.973
22.619
25.045
27.25
29.238
31.027
32.654
34.145
35.523
36.809
38.02
39.186
40.341
41.515
42.734
44.019
45.385
46.849
48.425
50.123
51.948
53.902
55.98
58.183
60.511
62.962
65.531
68.211
70.994
73.868
76.824
79.848
82.922
86.028
89.146
92.254
95.332
98.355
101.301
104.145
106.861
109.426
111.813
113.999
115.957
117.665
119.1
120.24
121.067
121.562
121.71
121.497
120.913
119.949
118.6
116.861
114.732
112.214
109.311
106.03
102.378
98.368
94.013
89.329
84.334
79.048
73.495
67.698
61.683
55.479
49.113
42.615
36.018
29.353
22.651
15.948
9.275
2.665
-3.847
-10.231
-16.454
-22.488
-28.302
-33.869
-39.164
-44.163
-48.843
-53.184
-57.168
-60.779
-64.002
-66.825
-69.239
-71.235
-72.808
-73.955
-74.674
-74.967
-74.837
-74.289
-73.331
-71.974
-70.231
-68.114
-65.642
-62.833
-59.706
-56.286
-52.596
-48.66
-44.508
-40.166
-35.663
-31.031
-26.299
-21.499
-16.663
-11.821
-7.005
-2.247
2.423
6.973
11.373
15.594
19.608
23.385
26.901
30.129
33.046
35.628
37.856
39.711
41.176
42.237
42.881
43.099
42.883
42.229
41.134
39.598
37.624
35.218
32.389
29.145
25.501
21.471
17.074
12.329
7.258
1.883
-3.769
-9.671
-15.797
-22.116
-28.598
-35.212
-41.924
-48.704
-55.518
-62.334
-69.117
-75.837
-82.461
-88.958
-95.298
-101.453
-107.396
-113.099
-118.541
-123.697
-128.549
-133.077
-137.266
-141.102
-144.572
-147.668
-150.383
-152.711
-154.651
-156.201
-157.365
-158.146
-158.551
-158.588
-158.267
-157.599
-156.597
-155.277
-153.653
-151.74
-149.557
-147.121
-144.45
-141.563
-138.479
-135.216
-131.793
-128.227
-124.537
-120.74
-116.851
-112.887
-108.86
-104.786
-100.677
-96.545
-92.401
-88.254
-84.115
-79.991
-75.889
-71.816
-67.776
-63.771
-59.806
-55.882
-52
-48.162
-44.368
-40.619
-36.918
-33.269
-29.677
-26.145
-22.677
-19.277
-15.949
-12.696
-9.521
-6.42
-3.394
-0.445
2.422
5.2
7.884
10.471
12.958
15.339
17.609
19.764
21.807
23.743
25.571
27.284
28.862
30.277
31.509
32.551
33.399
34.05
34.508
34.781
34.899
34.912
34.864
34.79
34.71
34.635
34.6
34.652
34.853
35.263
35.924
36.85
38.04
39.488
41.155
42.99
44.908
46.764
48.417
49.723
50.542
50.755
50.242
48.824
46.25
42.387
37.278
31.166
24.524
17.817
11.388
5.651
1.228
-1.482
-2.56
-2.598
-2.871
-4.638
-8.527
-14.987
-24.583
-37.379
-52.535
-68.221
-81.305
-88.352
-86.825
-74.405
-48.621
-7.649
49.2
121.071
205.114
297.23
393.145
487.825
575.4
649.488
703.637
732.688
733.026
704.801
652.02
578.59
487.502
377.006
242.37
87.256
-73.626
-214.68
-308.793
-345.154
-332.415
-294.101
-255.144
-228.157
-213.115
-202.182
-189.414
-174.595
-160.777
-152.031
-149.23
-150.489
-153.439
-155.572
-155.275
-152.178
-146.428
-138.481
-129.19
-119.37
-109.684
-100.834
-93.416
-87.678
-83.614
-81.076
-79.729
-79.279
-79.528
-80.211
-81.07
-81.88
-82.389
-82.442
-81.978
-80.933
-79.274
-76.984
-74.036
-70.453
-66.306
-61.655
-56.56
-51.079
-45.244
-39.114
-32.763
-26.27
-19.723
-13.186
-6.689
-0.259
6.092
12.359
18.542
24.656
30.74
36.819
42.915
49.042
55.205
61.416
67.694
74.052
80.501
87.048
93.691
100.429
107.258
114.168
121.145
128.17
135.218
142.266
149.292
156.273
163.186
170.005
176.701
183.247
189.614
195.773
201.689
207.331
212.664
217.653
222.266
226.47
230.234
233.525
236.316
238.577
240.284
241.413
241.943
241.854
241.132
239.764
237.742
235.061
231.72
227.721
223.07
217.78
211.864
205.341
198.231
190.56
182.356
173.651
164.48
154.878
144.887
134.549
123.907
113.008
101.9
90.631
79.252
67.81
56.356
44.939
33.609
22.412
11.395
0.603
-9.92
-20.134
-30
-39.483
-48.551
-57.174
-65.326
-72.985
-80.133
-86.754
-92.838
-98.377
-103.365
-107.803
-111.692
-115.039
-117.853
-120.146
-121.933
-123.23
-124.059
-124.441
-124.399
-123.959
-123.147
-121.991
-120.519
-118.76
-116.744
-114.5
-112.058
-109.448
-106.697
-103.834
-100.885
-97.877
-94.833
-91.775
-88.725
-85.701
-82.721
-79.799
-76.95
-74.185
-71.514
-68.943
-66.48
-64.127
-61.888
-59.762
-57.749
-55.845
-54.048
-52.351
-50.751
-49.239
-47.809
-46.454
-45.166
-43.936
-42.755
-41.617
-40.512
-39.434
-38.374
-37.326
-36.285
-35.245
-34.203
-33.155
-32.1
-31.036
-29.964
-28.885
-27.8
-26.714
-25.63
-24.554
-23.492
-22.452
-21.44
-20.467
-19.543
-18.676
-17.878
-17.16
-16.532
-16.006
-15.592
-15.302
-15.145
-15.131
-15.269
-15.568
-16.033
-16.672
-17.49
-18.49
-19.673
-21.04
-22.592
-24.324
-26.233
-28.314
-30.558
-32.956
-35.499
-38.173
-40.965
-43.859
-46.839
-49.886
-52.98
-56.103
-59.232
-62.344
-65.416
-68.425
-71.345
-74.154
-76.826
-79.336
-81.66
-83.776
-85.661
-87.294
-88.655
-89.725
-90.486
-90.926
-91.03
-90.789
-90.194
-89.239
-87.921
-86.239
-84.195
-81.794
-79.044
-75.956
-72.545
-68.829
-64.828
-60.565
-56.063
-51.349
-46.451
-41.398
-36.218
-30.939
-25.592
-20.21
-14.833
-9.494
-4.229
0.93
5.951
10.8
15.443
19.852
24.011
27.899
31.493
34.764
37.67
40.185
42.296
43.995
45.284
46.165
46.644
46.746
46.52
46.014
45.273
44.327
43.187
41.889
40.49
39.066
37.711
36.48
35.399
34.495
33.791
33.296
32.994
32.82
32.668
32.45
32.088
31.522
30.689
29.488
27.827
25.55
22.455
18.499
13.752
8.411
2.863
-2.543
-7.524
-11.602
-14.212
-15.052
-14.025
-11.587
-8.702
-6.067
-4.209
-3.563
-4.37
-6.82
-10.839
-15.219
-17.852
-16.637
-9.278
5.994
30.398
65.72
113.715
174.863
248.421
331.175
417.212
501.486
580.652
654.885
726.608
794.177
850.43
881.061
870.344
810.088
700.616
553.366
386.918
221.103
76.812
-31.092
-97.389
-127.029
-135.055
-135.176
-134.309
-132.499
-123.294
-103.87
-77.222
-47.967
-22.281
-3.956
6.602
9.408
5.025
-5.047
-18.967
-35.178
-51.995
-67.83
-81.785
-92.899
-100.44
-104.554
-105.846
-104.946
-102.773
-100.354
-98.24
-96.945
-96.812
-97.737
-99.535
-101.945
-104.477
-106.592
-107.976
-108.417
-107.833
-106.3
-103.837
-100.467
-96.29
-91.418
-85.94
-79.92
-73.381
-66.329
-58.812
-50.907
-42.711
-34.311
-25.764
-17.109
-8.382
0.387
9.164
17.928
26.674
35.393
44.071
52.689
61.221
69.646
77.958
86.153
94.23
102.186
110.013
117.702
125.243
132.627
139.842
146.872
153.701
160.316
166.707
172.865
178.783
184.452
189.865
195.012
199.887
204.482
208.788
212.797
216.5
219.89
222.959
225.701
228.11
230.179
231.901
233.27
234.282
234.932
235.213
235.122
234.654
233.807
232.58
230.97
228.978
226.604
223.85
220.72
217.218
213.349
209.118
204.535
199.607
194.344
188.757
182.859
176.663
170.182
163.432
156.43
149.192
141.738
134.086
126.257
118.27
110.149
101.915
93.591
85.2
76.767
68.315
59.868
51.45
43.086
34.798
26.61
18.546
10.626
2.874
-4.691
-12.049
-19.179
-26.066
-32.691
-39.039
-45.097
-50.851
-56.289
-61.401
-66.178
-70.613
-74.699
-78.432
-81.809
-84.828
-87.49
-89.797
-91.751
-93.358
-94.624
-95.556
-96.164
-96.458
-96.45
-96.151
-95.577
-94.74
-93.658
-92.345
-90.819
-89.096
-87.194
-85.131
-82.923
-80.588
-78.143
-75.605
-72.991
-70.316
-67.596
-64.846
-62.079
-59.308
-56.545
-53.801
-51.085
-48.407
-45.772
-43.188
-40.66
-38.191
-35.784
-33.441
-31.162
-28.946
-26.792
-24.698
-22.658
-20.669
-18.727
-16.824
-14.955
-13.113
-11.293
-9.487
-7.688
-5.891
-4.089
-2.276
-0.447
1.402
3.275
5.175
7.103
9.059
11.043
13.052
15.082
17.128
19.184
21.243
23.297
25.335
27.347
29.321
31.245
33.103
34.881
36.564
38.135
39.577
40.872
42.004
42.956
43.71
44.249
44.556
44.616
44.414
43.934
43.163
42.089
40.7
38.989
36.948
34.573
31.861
28.812
25.427
21.713
17.675
13.322
8.666
3.718
-1.505
-6.985
-12.704
-18.639
-24.768
-31.065
-37.502
-44.052
-50.684
-57.37
-64.08
-70.781
-77.443
-84.033
-90.519
-96.872
-103.058
-109.048
-114.81
-120.315
-125.536
-130.448
-135.028
-139.254
-143.107
-146.571
-149.634
-152.284
-154.516
-156.323
-157.704
-158.658
-159.191
-159.311
-159.028
-158.354
-157.307
-155.904
-154.173
-152.138
-149.828
-147.27
-144.494
-141.533
-138.419
-135.184
-131.857
-128.468
-125.046
-121.627
-118.244
-114.934
-111.727
-108.653
-105.741
-103.021
-100.518
-98.251
-96.227
-94.456
-92.947
-91.72
-90.8
-90.204
-89.934
-89.993
-90.374
-91.06
-92.029
-93.238
-94.622
-96.124
-97.697
-99.306
-100.932
-102.54
-104.084
-105.509
-106.753
-107.77
-108.534
-108.999
-109.142
-108.989
-108.592
-108.051
-107.497
-106.998
-106.62
-106.45
-106.566
-107.077
-108.1
-109.689
-111.93
-114.991
-118.92
-123.657
-128.942
-134.151
-138.644
-141.94
-143.498
-142.735
-139.392
-133.552
-125.868
-117.893
-111.145
-106.581
-105.043
-107.193
-113.068
-121.966
-132.069
-139.839
-141.543
-134.411
-115.656
-82.694
-33.671
32.8
114.557
204.821
297.036
385.188
468.546
552.849
637.165
715.655
773.746
785.633
738.376
628.588
462.49
267.275
65.658
-121.1
-268.516
-371.607
-430.85
-453.117
-458.714
-457.611
-453.001
-445.338
-427.193
-397.487
-361.362
-323.281
-289.309
-263.074
-244.744
-234.446
-231.586
-234.496
-241.25
-250.34
-260.246
-269.398
-276.813
-281.416
-282.449
-280.179
-275.348
-268.671
-261.106
-253.693
-247.018
-241.66
-237.99
-235.872
-235.046
-235.12
-235.49
-235.57
-235.018
-233.615
-231.274
-228.047
-223.946
-219.021
-213.397
-207.195
-200.505
-193.369
-185.792
-177.781
-169.385
-160.692
-151.803
-142.794
-133.707
-124.569
-115.395
-106.203
-97.009
-87.805
-78.571
-69.298
-59.985
-50.645
-41.295
-31.943
-22.588
-13.228
-3.861
5.51
14.874
24.221
33.534
42.792
51.971
61.041
69.968
78.722
87.272
95.591
103.648
111.413
118.856
125.945
132.65
138.94
144.783
150.148
155.005
159.327
163.088
166.264
168.834
170.778
172.08
172.726
172.706
172.01
170.634
168.575
165.835
162.417
158.33
153.585
148.197
142.183
135.567
128.373
120.631
112.372
103.633
94.451
84.868
74.926
64.67
54.149
43.41
32.502
21.476
10.383
-0.725
-11.8
-22.79
-33.647
-44.324
-54.775
-64.956
-74.826
-84.345
-93.478
-102.189
-110.448
-118.225
-125.497
-132.24
-138.435
-144.067
-149.123
-153.594
-157.476
-160.765
-163.464
-165.576
-167.109
-168.074
-168.484
-168.354
-167.704
-166.553
-164.925
-162.842
-160.331
-157.419
-154.132
-150.498
-146.546
-142.303
-137.799
-133.06
-128.114
-122.988
-117.709
-112.301
-106.789
-101.198
-95.551
-89.868
-84.172
-78.481
-72.816
-67.193
-61.629
-56.14
-50.74
-45.444
-40.262
-35.208
-30.292
-25.522
-20.909
-16.46
-12.182
-8.082
-4.166
-0.44
3.09
6.419
9.542
12.453
15.146
17.616
19.858
21.866
23.635
25.159
26.434
27.455
28.218
28.718
28.951
28.915
28.606
28.025
27.169
26.038
24.635
22.962
21.021
18.817
16.357
13.646
10.692
7.504
4.092
0.467
-3.359
-7.373
-11.561
-15.907
-20.395
-25.007
-29.724
-34.527
-39.396
-44.31
-49.249
-54.191
-59.114
-63.997
-68.818
-73.556
-78.191
-82.701
-87.068
-91.273
-95.297
-99.126
-102.744
-106.137
-109.295
-112.206
-114.862
-117.255
-119.38
-121.233
-122.81
-124.111
-125.135
-125.885
-126.364
-126.576
-126.527
-126.224
-125.676
-124.893
-123.883
-122.657
-121.227
-119.603
-117.798
-115.822
-113.688
-111.406
-108.99
-106.45
-103.797
-101.041
-98.192
-95.258
-92.247
-89.167
-86.022
-82.817
-79.555
-76.24
-72.873
-69.457
-65.992
-62.479
-58.916
-55.304
-51.641
-47.925
-44.154
-40.327
-36.439
-32.491
-28.481
-24.409
-20.276
-16.082
-11.831
-7.526
-3.172
1.224
5.654
10.112
14.588
19.068
23.54
27.99
32.402
36.757
41.035
45.212
49.263
53.165
56.891
60.416
63.714
66.758
69.526
71.997
74.153
75.97
77.427
78.501
79.172
79.423
79.241
78.611
77.522
75.967
73.946
71.468
68.541
65.169
61.35
57.074
52.343
47.171
41.575
35.583
29.225
22.542
15.593
8.458
1.213
-6.074
-13.345
-20.556
-27.647
-34.544
-41.159
-47.405
-53.214
-58.526
-63.298
-67.505
-71.146
-74.253
-76.896
-79.163
-81.146
-82.944
-84.646
-86.348
-88.149
-90.132
-92.425
-95.213
-98.565
-102.423
-106.552
-110.484
-113.753
-116.021
-116.849
-115.617
-111.92
-105.761
-97.689
-88.928
-80.686
-73.565
-68.027
-64.852
-64.478
-66.505
-69.505
-70.513
-66.255
-54.699
-33.787
-0.552
47.58
112.381
192.169
280.617
371.902
463.277
557.076
657.628
761.469
854.951
916.354
926.027
877.658
780.449
652.365
507.231
354.705
200.071
51.423
-70.746
-151.31
-184.283
-175.715
-148.799
-120.653
-98.631
-83.209
-65.892
-43.758
-19.82
2.585
19.158
28.91
33.762
34.978
33.723
31.472
29.297
28.247
28.811
30.67
33.461
37.249
42.356
48.667
55.617
62.319
68.157
73.063
77.113
80.268
82.255
82.898
82.37
81.181
79.811
78.429
76.974
75.236
73.093
70.556
67.611
64.178
60.143
55.458
50.18
44.489
38.618
32.716
26.849
21.028
15.259
9.62
4.255
-0.664
-5.005
-8.677
-11.611
-13.733
-14.958
-15.252
-14.641
-13.226
-11.15
-8.507
-5.341
-1.671
2.484
7.085
12.068
17.37
22.959
28.806
34.876
41.129
47.515
54.006
60.604
67.337
74.242
81.331
88.595
96.009
103.55
111.187
118.891
126.62
134.318
141.936
149.43
156.765
163.908
170.823
177.467
183.797
189.771
195.355
200.52
205.241
209.499
213.277
216.566
219.364
221.675
223.504
224.856
225.739
226.162
226.137
225.682
224.815
223.555
221.926
219.954
217.67
215.105
212.292
209.268
206.068
202.729
199.287
195.779
192.241
188.708
185.212
181.785
178.459
175.259
172.213
169.342
166.669
164.209
161.977
159.986
158.241
156.749
155.511
154.526
153.79
153.297
153.038
153
153.17
153.532
154.067
154.753
155.567
156.483
157.475
158.513
159.569
160.612
161.611
162.536
163.357
164.044
164.568
164.902
165.019
164.894
164.504
163.827
162.845
161.538
159.894
157.9
155.545
152.824
149.73
146.264
142.424
138.215
133.642
128.713
123.438
117.832
111.908
105.684
99.181
92.42
85.426
78.223
70.84
63.304
55.646
47.896
40.085
32.244
24.405
16.6
8.86
1.217
-6.3
-13.659
-20.833
-27.793
-34.513
-40.968
-47.134
-52.989
-58.513
-63.688
-68.498
-72.927
-76.964
-80.598
-83.819
-86.621
-89.001
-90.954
-92.481
-93.584
-94.266
-94.533
-94.393
-93.855
-92.93
-91.629
-89.968
-87.959
-85.62
-82.968
-80.019
-76.793
-73.31
-69.588
-65.649
-61.512
-57.197
-52.726
-48.117
-43.391
-38.566
-33.66
-28.693
-23.682
-18.642
-13.591
-8.543
-3.513
1.484
6.438
11.335
16.165
20.917
25.582
30.152
34.618
38.972
43.208
47.319
51.299
55.141
58.841
62.394
65.794
69.037
72.12
75.037
77.785
80.359
82.755
84.967
86.992
88.824
90.456
91.885
93.103
94.106
94.886
95.438
95.756
95.833
95.662
95.239
94.557
93.611
92.397
90.91
89.148
87.108
84.792
82.198
79.33
76.19
72.783
69.114
65.191
61.021
56.615
51.984
47.141
42.1
36.878
31.491
25.961
20.306
14.549
8.713
2.822
-3.099
-9.025
-14.928
-20.782
-26.558
-32.229
-37.767
-43.143
-48.329
-53.299
-58.028
-62.491
-66.666
-70.532
-74.071
-77.268
-80.108
-82.579
-84.672
-86.379
-87.696
-88.621
-89.155
-89.299
-89.061
-88.45
-87.48
-86.168
-84.533
-82.597
-80.381
-77.911
-75.214
-72.318
-69.248
-66.031
-62.691
-59.262
-55.776
-52.266
-48.763
-45.297
-41.896
-38.591
-35.409
-32.372
-29.497
-26.794
-24.277
-21.963
-19.878
-18.048
-16.493
-15.22
-14.233
-13.535
-13.122
-12.982
-13.087
-13.391
-13.852
-14.441
-15.131
-15.899
-16.711
-17.522
-18.278
-18.928
-19.422
-19.724
-19.819
-19.692
-19.356
-18.831
-18.145
-17.377
-16.622
-15.973
-15.546
-15.435
-15.705
-16.481
-17.943
-20.173
-23.16
-26.726
-30.45
-33.944
-36.923
-39.019
-39.794
-38.978
-36.544
-32.977
-29.352
-26.718
-25.847
-27.39
-31.92
-39.643
-50.203
-62.249
-73.4
-80.962
-82.317
-75.046
-56.683
-25.28
20.037
79.246
151.088
232.643
320.197
408.148
488.309
555.077
604.79
635.744
650.466
647.094
620.764
566.08
475.08
345.897
182.913
-1.385
-185.4
-345.87
-461.034
-521.49
-530.687
-498.799
-442.75
-375.741
-308.288
-252.985
-216.852
-202.874
-208.246
-221.397
-232.281
-235.555
-230.599
-222.748
-216.275
-212.105
-209.285
-204.703
-196.478
-185.059
-171.79
-158.731
-147.268
-137.645
-129.879
-123.969
-120.031
-118.202
-118.238
-119.498
-121.316
-123.198
-124.838
-126.122
-126.949
-127.173
-126.719
-125.565
-123.739
-121.321
-118.356
-114.815
-110.636
-105.751
-100.157
-93.957
-87.317
-80.389
-73.3
-66.127
-58.928
-51.773
-44.721
-37.798
-30.997
-24.282
-17.626
-11.041
-4.572
1.732
7.848
13.797
19.62
25.345
30.984
36.542
42.022
47.441
52.803
58.091
63.267
68.29
73.129
77.765
82.188
86.386
90.338
94.022
97.414
100.494
103.244
105.645
107.672
109.304
110.521
111.312
111.672
111.598
111.082
110.123
108.718
106.87
104.584
101.864
98.716
95.147
91.17
86.8
82.053
76.95
71.51
65.757
59.716
53.414
46.878
40.139
33.225
26.169
19.001
11.756
4.465
-2.838
-10.121
-17.351
-24.495
-31.521
-38.399
-45.098
-51.591
-57.85
-63.85
-69.568
-74.981
-80.07
-84.818
-89.21
-93.232
-96.872
-100.122
-102.975
-105.427
-107.475
-109.121
-110.364
-111.211
-111.668
-111.742
-111.443
-110.784
-109.778
-108.439
-106.784
-104.832
-102.6
-100.11
-97.381
-94.435
-91.294
-87.981
-84.52
-80.932
-77.241
-73.471
-69.646
-65.787
-61.918
-58.06
-54.234
-50.462
-46.764
-43.158
-39.663
-36.296
-33.074
-30.012
-27.127
-24.43
-21.935
-19.654
-17.596
-15.77
-14.184
-12.845
-11.758
-10.926
-10.353
-10.04
-9.988
-10.196
-10.663
-11.384
-12.356
-13.574
-15.031
-16.719
-18.631
-20.755
-23.083
-25.603
-28.304
-31.173
-34.197
-37.363
-40.657
-44.064
-47.569
-51.157
-54.812
-58.518
-62.26
-66.021
-69.786
-73.54
-77.267
-80.952
-84.58
-88.137
-91.608
-94.981
-98.243
-101.38
-104.381
-107.236
-109.935
-112.469
-114.829
-117.009
-119.003
-120.805
-122.412
-123.82
-125.028
-126.033
-126.836
-127.437
-127.839
-128.043
-128.053
-127.874
-127.511
-126.968
-126.253
-125.373
-124.334
-123.144
-121.811
-120.345
-118.753
-117.046
-115.231
-113.32
-111.321
-109.244
-107.099
-104.895
-102.64
-100.343
-98.012
-95.656
-93.28
-90.892
-88.498
-86.103
-83.712
-81.329
-78.957
-76.601
-74.261
-71.94
-69.639
-67.358
-65.098
-62.86
-60.643
-58.447
-56.271
-54.115
-51.979
-49.861
-47.761
-45.678
-43.612
-41.562
-39.528
-37.511
-35.51
-33.527
-31.563
-29.62
-27.7
-25.807
-23.944
-22.115
-20.325
-18.579
-16.885
-15.248
-13.676
-12.178
-10.762
-9.436
-8.209
-7.091
-6.09
-5.215
-4.476
-3.88
-3.434
-3.146
-3.024
-3.072
-3.295
-3.698
-4.282
-5.051
-6.005
-7.143
-8.462
-9.96
-11.631
-13.47
-15.469
-17.619
-19.911
-22.332
-24.869
-27.507
-30.231
-33.022
-35.861
-38.729
-41.603
-44.462
-47.285
-50.048
-52.728
-55.302
-57.748
-60.042
-62.163
-64.09
-65.802
-67.278
-68.502
-69.456
-70.126
-70.498
-70.561
-70.306
-69.725
-68.815
-67.573
-65.998
-64.092
-61.857
-59.302
-56.435
-53.267
-49.813
-46.087
-42.11
-37.906
-33.501
-28.922
-24.197
-19.356
-14.431
-9.454
-4.457
0.533
5.487
10.378
15.173
19.84
24.348
28.669
32.777
36.643
40.241
43.551
46.555
49.248
51.623
53.669
55.372
56.708
57.664
58.234
58.417
58.216
57.642
56.72
55.488
54.009
52.342
50.534
48.623
46.639
44.621
42.623
40.706
38.927
37.33
35.95
34.832
34.009
33.462
33.143
32.961
32.796
32.577
32.244
31.704
30.874
29.652
27.907
25.578
22.581
18.755
14.078
8.63
2.632
-3.344
-8.685
-12.934
-15.466
-15.629
-13.32
-8.673
-2.315
4.229
9.702
13.257
13.699
10.18
3.043
-6.75
-17.038
-24.042
-24.568
-15.822
5.642
42.458
95.646
165.017
248.166
340.137
435.937
530.127
615.511
684.926
732.332
752.494
743.724
708.868
649.18
566.015
461.3
334.225
193.186
54.254
-67.252
-153.946
-201.541
-220.287
-219.94
-212.665
-204.545
-191.91
-174.941
-155.371
-135.28
-119.663
-110.507
-106.891
-107.661
-110.905
-114.368
-116.254
-115.54
-111.812
-105.422
-97.247
-88.027
-78.364
-69.025
-60.79
-54.103
-49.159
-45.853
-43.827
-42.798
-42.557
-42.88
-43.536
-44.319
-45.007
-45.379
-45.317
-44.734
-43.562
-41.774
-39.334
-36.215
-32.446
-28.094
-23.229
-17.918
-12.215
-6.153
0.214
6.814
13.565
20.376
27.185
33.955
40.657
47.275
53.791
60.197
66.505
72.742
78.93
85.078
91.191
97.264
103.3
109.309
115.295
121.26
127.202
133.112
138.981
144.8
150.554
156.225
161.79
167.221
172.496
177.592
182.487
187.158
191.582
195.736
199.596
203.14
206.344
209.185
211.638
213.68
215.289
216.445
217.132
217.331
217.028
216.213
214.875
213.01
210.611
207.678
204.211
200.216
195.7
190.675
185.153
179.151
172.688
165.789
158.476
150.779
142.728
134.353
125.69
116.775
107.646
98.342
88.905
79.375
69.795
60.21
50.662
41.195
31.852
22.675
13.704
4.979
-3.464
-11.588
-19.36
-26.751
-33.733
-40.279
-46.368
-51.98
-57.1
-61.714
-65.813
-69.389
-72.439
-74.964
-76.964
-78.446
-79.418
-79.89
-79.876
-79.392
-78.455
-77.088
-75.311
-73.149
-70.629
-67.777
-64.622
-61.193
-57.519
-53.631
-49.558
-45.331
-40.978
-36.527
-32.007
-27.445
-22.864
-18.289
-13.743
-9.247
-4.819
-0.477
3.762
7.885
11.878
15.732
19.437
22.984
26.368
29.584
32.628
35.499
38.195
40.717
43.067
45.248
47.261
49.113
50.807
52.349
53.744
54.997
56.116
57.103
57.966
58.708
59.332
59.843
60.242
60.531
60.711
60.782
60.743
60.591
60.325
59.941
59.436
58.804
58.042
57.142
56.101
54.911
53.566
52.06
50.388
48.541
46.515
44.304
41.902
39.305
36.507
33.507
30.3
26.884
23.26
19.426
15.385
11.14
6.693
2.052
-2.777
-7.786
-12.964
-18.301
-23.784
-29.4
-35.134
-40.971
-46.895
-52.887
-58.93
-65.006
-71.097
-77.181
-83.242
-89.258
-95.212
-101.083
-106.854
-112.507
-118.023
-123.385
-128.579
-133.587
-138.397
-142.994
-147.366
-151.504
-155.396
-159.035
-162.416
-165.532
-168.381
-170.96
-173.27
-175.31
-177.084
-178.595
-179.847
-180.847
-181.599
-182.112
-182.395
-182.454
-182.302
-181.946
-181.397
-180.666
-179.762
-178.698
-177.482
-176.126
-174.639
-173.031
-171.313
-169.493
-167.579
-165.581
-163.506
-161.362
-159.153
-156.887
-154.567
-152.198
-149.782
-147.323
-144.821
-142.279
-139.697
-137.074
-134.412
-131.71
-128.968
-126.185
-123.361
-120.496
-117.59
-114.643
-111.655
-108.628
-105.563
-102.462
-99.328
-96.164
-92.974
-89.762
-86.533
-83.293
-80.048
-76.804
-73.57
-70.353
-67.163
-64.008
-60.898
-57.843
-54.856
-51.947
-49.128
-46.41
-43.807
-41.329
-38.988
-36.797
-34.766
-32.906
-31.226
-29.736
-28.444
-27.358
-26.482
-25.821
-25.378
-25.157
-25.159
-25.382
-25.825
-26.486
-27.359
-28.439
-29.721
-31.195
-32.852
-34.681
-36.671
-38.809
-41.082
-43.475
-45.974
-48.561
-51.22
-53.936
-56.692
-59.469
-62.251
-65.02
-67.76
-70.455
-73.09
-75.651
-78.123
-80.496
-82.765
-84.921
-86.96
-88.877
-90.671
-92.339
-93.884
-95.303
-96.594
-97.757
-98.791
-99.703
-100.501
-101.193
-101.786
-102.287
-102.706
-103.055
-103.347
-103.587
-103.776
-103.92
-104.028
-104.119
-104.228
-104.376
-104.575
-104.836
-105.161
-105.55
-105.998
-106.482
-106.95
-107.362
-107.673
-107.857
-107.905
-107.786
-107.457
-106.868
-105.947
-104.653
-102.973
-100.891
-98.411
-95.573
-92.432
-89.088
-85.693
-82.378
-79.278
-76.537
-74.276
-72.634
-71.738
-71.733
-72.827
-75.106
-78.51
-82.84
-87.674
-92.52
-96.985
-100.549
-102.531
-102.509
-100.305
-96.179
-91.037
-85.814
-81.186
-77.78
-76.163
-76.606
-78.985
-82.196
-83.973
-81.599
-72.386
-53.956
-23.988
19.98
79.886
156.215
246.305
344.434
444.718
542.798
638.281
732.031
820.083
892.073
931.103
922.582
861.543
753.586
612.31
450.112
277.951
107.986
-44.423
-161.088
-230.376
-253.487
-244.137
-219.415
-190.63
-160.508
-124.961
-82.221
-35.954
7.748
41.93
62.893
70.842
67.256
54.701
36.202
14.865
-6.278
-25.036
-39.979
-50.521
-56.769
-59.257
-59.031
-57.608
-56.505
-56.686
-58.71
-62.723
-68.505
-75.76
-84.049
-92.703
-101.039
-108.632
-115.25
-120.826
-125.431
-129.085
-131.801
-133.652
-134.734
-135.115
-134.835
-133.905
-132.326
-130.139
-127.417
-124.239
-120.674
-116.757
-112.508
-107.937
-103.052
-97.863
-92.372
-86.575
-80.472
-74.068
-67.376
-60.411
-53.185
-45.7
-37.956
-29.951
-21.685
-13.169
-4.416
4.56
13.738
23.099
32.617
42.266
52.021
61.858
71.757
81.697
91.656
101.609
111.533
121.403
131.196
140.884
150.441
159.84
169.057
178.067
186.845
195.368
203.613
211.559
219.182
226.462
233.378
239.91
246.038
251.742
257.006
261.812
266.145
269.992
273.341
276.179
278.499
280.292
281.552
282.274
282.454
282.091
281.184
279.735
277.745
275.219
272.163
268.584
264.492
259.897
254.811
249.246
243.219
236.743
229.838
222.521
214.813
206.735
198.31
189.562
180.517
171.199
161.637
151.858
141.89
131.762
121.503
111.142
100.708
90.232
79.743
69.271
58.846
48.497
38.254
28.145
18.2
8.447
-1.088
-10.377
-19.395
-28.115
-36.515
-44.572
-52.264
-59.571
-66.477
-72.966
-79.023
-84.638
-89.801
-94.505
-98.745
-102.519
-105.824
-108.663
-111.039
-112.957
-114.425
-115.452
-116.05
-116.232
-116.012
-115.407
-114.436
-113.117
-111.472
-109.522
-107.292
-104.807
-102.091
-99.173
-96.08
-92.84
-89.48
-86.03
-82.517
-78.969
-75.411
-71.87
-68.369
-64.933
-61.584
-58.341
-55.225
-52.252
-49.44
-46.802
-44.351
-42.097
-40.05
-38.216
-36.6
-35.208
-34.04
-33.098
-32.38
-31.883
-31.604
-31.537
-31.673
-32.004
-32.518
-33.203
-34.046
-35.033
-36.146
-37.372
-38.692
-40.091
-41.552
-43.058
-44.591
-46.136
-47.675
-49.194
-50.675
-52.105
-53.469
-54.754
-55.947
-57.038
-58.016
-58.872
-59.596
-60.181
-60.62
-60.907
-61.037
-61.006
-60.81
-60.449
-59.923
-59.232
-58.379
-57.369
-56.206
-54.896
-53.446
-51.864
-50.158
-48.339
-46.416
-44.399
-42.302
-40.134
-37.91
-35.641
-33.341
-31.023
-28.699
-26.384
-24.089
-21.827
-19.61
-17.451
-15.362
-13.354
-11.44
-9.63
-7.935
-6.366
-4.931
-3.64
-2.499
-1.516
-0.695
-0.041
0.443
0.754
0.891
0.854
0.643
0.26
-0.292
-1.01
-1.888
-2.92
-4.1
-5.42
-6.871
-8.445
-10.131
-11.921
-13.803
-15.767
-17.801
-19.895
-22.036
-24.212
-26.411
-28.621
-30.829
-33.022
-35.189
-37.317
-39.396
-41.414
-43.361
-45.226
-47.002
-48.679
-50.249
-51.703
-53.036
-54.241
-55.311
-56.243
-57.031
-57.671
-58.161
-58.497
-58.678
-58.702
-58.569
-58.278
-57.827
-57.218
-56.45
-55.523
-54.439
-53.198
-51.802
-50.252
-48.55
-46.7
-44.703
-42.563
-40.283
-37.866
-35.316
-32.639
-29.838
-26.917
-23.882
-20.74
-17.498
-14.163
-10.744
-7.251
-3.697
-0.096
3.539
7.194
10.854
14.505
18.13
21.716
25.251
28.721
32.114
35.412
38.595
41.646
44.548
47.285
49.844
52.206
54.355
56.278
57.974
59.433
60.645
61.59
62.234
62.554
62.543
62.194
61.51
60.498
59.163
57.534
55.662
53.594
51.375
49.037
46.59
44.066
41.514
38.993
36.588
34.349
32.295
30.449
28.816
27.378
26.1
24.903
23.661
22.264
20.6
18.559
16.051
12.964
9.207
4.648
-0.911
-7.533
-15.155
-23.564
-32.309
-40.952
-49.174
-56.51
-62.359
-66.341
-68.24
-68.373
-67.755
-67.261
-67.496
-68.979
-72.078
-77.087
-84.086
-91.984
-98.395
-100.782
-96.737
-83.901
-60.063
-22.68
31.019
100.058
179.368
264.491
350.887
439.852
539.175
647.646
755.845
845.088
887.515
869.133
791.98
667.657
516.59
354.866
191.96
40.704
-82.455
-165.578
-203.048
-202.697
-185.568
-167.064
-154.548
-147.508
-137.568
-122.116
-104.064
-86.878
-75.014
-69.362
-67.82
-68.643
-69.929
-69.974
-67.713
-62.569
-54.658
-44.705
-33.635
-22.213
-11.034
-0.69
8.252
15.49
20.997
24.948
27.669
29.442
30.454
30.912
31.03
30.997
31.023
31.297
31.918
32.956
34.459
36.434
38.897
41.843
45.215
48.94
52.942
57.146
61.495
65.941
70.411
74.829
79.106
83.152
86.91
90.343
93.426
96.147
98.501
100.492
102.145
103.498
104.579
105.415
106.025
106.425
106.641
106.703
106.638
106.473
106.232
105.936
105.606
105.262
104.921
104.595
104.294
104.026
103.799
103.624
103.509
103.464
103.495
103.607
103.802
104.085
104.454
104.906
105.436
106.037
106.699
107.414
108.17
108.955
109.755
110.555
111.342
112.098
112.809
113.458
114.027
114.502
114.867
115.105
115.204
115.148
114.926
114.524
113.933
113.144
112.148
110.938
109.509
107.858
105.984
103.888
101.571
99.037
96.294
93.348
90.211
86.895
83.412
79.778
76.01
72.124
68.141
64.08
59.961
55.806
51.637
47.475
43.343
39.263
35.255
31.342
27.545
23.883
20.376
17.044
13.904
10.973
8.269
5.806
3.597
1.655
-0.009
-1.388
-2.473
-3.26
-3.745
-3.927
-3.807
-3.388
-2.674
-1.671
-0.388
1.163
2.971
5.02
7.295
9.778
12.449
15.288
18.272
21.378
24.582
27.859
31.182
34.523
37.856
41.15
44.377
47.506
50.508
53.351
56.006
58.443
60.631
62.542
64.149
65.425
66.343
66.881
67.016
66.727
65.997
64.809
63.15
61.009
58.378
55.25
51.624
47.499
42.877
37.764
32.169
26.101
19.576
12.608
5.219
-2.571
-10.737
-19.252
-28.085
-37.204
-46.576
-56.163
-65.928
-75.829
-85.827
-95.879
-105.942
-115.972
-125.927
-135.761
-145.433
-154.901
-164.123
-173.059
-181.673
-189.928
-197.789
-205.227
-212.211
-218.716
-224.719
-230.199
-235.138
-239.524
-243.345
-246.594
-249.266
-251.36
-252.881
-253.833
-254.226
-254.073
-253.39
-252.197
-250.515
-248.37
-245.789
-242.802
-239.442
-235.741
-231.735
-227.461
-222.955
-218.254
-213.398
-208.423
-203.367
-198.268
-193.16
-188.078
-183.056
-178.126
-173.318
-168.659
-164.176
-159.892
-155.829
-152.005
-148.439
-145.143
-142.129
-139.407
-136.981
-134.856
-133.033
-131.508
-130.277
-129.332
-128.664
-128.26
-128.107
-128.187
-128.483
-128.977
-129.646
-130.47
-131.425
-132.49
-133.64
-134.851
-136.099
-137.36
-138.612
-139.831
-140.994
-142.082
-143.072
-143.946
-144.686
-145.272
-145.689
-145.922
-145.956
-145.778
-145.377
-144.745
-143.871
-142.751
-141.38
-139.755
-137.877
-135.744
-133.36
-130.727
-127.852
-124.742
-121.403
-117.845
-114.077
-110.111
-105.958
-101.634
-97.15
-92.523
-87.765
-82.894
-77.925
-72.875
-67.762
-62.601
-57.411
-52.211
-47.019
-41.856
-36.74
-31.693
-26.734
-21.885
-17.166
-12.599
-8.203
-3.997
-0.001
3.765
7.283
10.535
13.503
16.171
18.521
20.533
22.19
23.475
24.375
24.874
24.961
24.623
23.852
22.646
21.002
18.92
16.396
13.429
10.019
6.174
1.902
-2.788
-7.885
-13.376
-19.238
-25.441
-31.957
-38.761
-45.839
-53.183
-60.775
-68.587
-76.586
-84.737
-93
-101.331
-109.666
-117.923
-126.023
-133.897
-141.492
-148.764
-155.651
-162.073
-167.946
-173.184
-177.733
-181.549
-184.588
-186.834
-188.298
-189.026
-189.103
-188.629
-187.7
-186.421
-184.909
-183.297
-181.726
-180.32
-179.241
-178.7
-178.785
-179.441
-180.454
-181.359
-181.697
-181.152
-179.303
-175.588
-169.695
-161.71
-152.217
-142.457
-133.569
-126.055
-120.297
-116.875
-116.052
-117.329
-119.145
-118.509
-112.289
-98.527
-75.289
-40.075
9.427
75.284
156.027
245.661
338.864
431.114
523.099
620.843
722.096
818.274
893.145
922.906
896.718
815.595
687.109
527.632
351.949
172.92
10.46
-112.735
-183.626
-200.135
-176.476
-140.294
-109.612
-91.441
-83.836
-76.143
-64.61
-51.701
-40.381
-34.879
-35.65
-39.837
-45.066
-49.078
-50.142
-47.874
-42.437
-34.342
-24.564
-14.075
-3.628
6.09
14.442
21.12
26.071
29.406
31.438
32.47
32.731
32.446
31.84
31.104
30.449
30.108
30.222
30.889
32.179
34.111
36.71
39.999
43.945
48.477
53.519
58.992
64.835
71.001
77.422
84.008
90.659
97.261
103.734
110.026
116.095
121.913
127.459
132.715
137.691
142.412
146.897
151.158
155.2
159.022
162.632
166.049
169.288
172.362
175.282
178.054
180.684
183.182
185.548
187.784
189.885
191.845
193.66
195.332
196.859
198.242
199.482
200.576
201.526
202.332
202.992
203.503
203.862
204.065
204.105
203.98
203.684
203.212
202.557
201.715
200.681
199.449
198.015
196.372
194.518
192.448
190.16
187.652
184.926
181.979
178.815
175.437
171.849
168.057
164.068
159.889
155.53
151
146.31
141.473
136.502
131.409
126.21
120.919
115.553
110.127
104.659
99.166
93.665
88.173
82.709
77.291
71.935
66.658
61.478
56.41
51.47
46.672
42.029
37.554
33.257
29.148
25.235
21.526
18.024
14.735
11.662
8.804
6.163
3.736
1.521
-0.486
-2.289
-3.895
-5.31
-6.541
-7.595
-8.482
-9.209
-9.787
-10.224
-10.532
-10.721
-10.802
-10.787
-10.686
-10.511
-10.274
-9.985
-9.656
-9.297
-8.919
-8.532
-8.145
-7.767
-7.408
-7.075
-6.776
-6.517
-6.305
-6.145
-6.043
-6.002
-6.028
-6.123
-6.291
-6.537
-6.862
-7.271
-7.765
-8.348
-9.022
-9.789
-10.65
-11.607
-12.662
-13.815
-15.066
-16.416
-17.864
-19.411
-21.056
-22.796
-24.631
-26.559
-28.576
-30.68
-32.867
-35.135
-37.478
-39.893
-42.374
-44.919
-47.52
-50.173
-52.87
-55.605
-58.371
-61.159
-63.96
-66.767
-69.569
-72.357
-75.121
-77.851
-80.536
-83.165
-85.729
-88.216
-90.615
-92.917
-95.11
-97.186
-99.134
-100.946
-102.614
-104.131
-105.488
-106.681
-107.704
-108.551
-109.218
-109.701
-109.998
-110.107
-110.025
-109.755
-109.295
-108.649
-107.818
-106.808
-105.621
-104.264
-102.741
-101.061
-99.23
-97.255
-95.146
-92.911
-90.56
-88.102
-85.549
-82.909
-80.193
-77.412
-74.574
-71.689
-68.767
-65.816
-62.845
-59.862
-56.876
-53.893
-50.921
-47.967
-45.037
-42.137
-39.271
-36.443
-33.657
-30.915
-28.22
-25.574
-22.977
-20.43
-17.936
-15.493
-13.103
-10.764
-8.477
-6.24
-4.052
-1.913
0.18
2.227
4.228
6.185
8.097
9.963
11.784
13.558
15.284
16.961
18.587
20.161
21.68
23.142
24.543
25.88
27.149
28.344
29.462
30.496
31.441
32.293
33.044
33.692
34.23
34.654
34.959
35.142
35.199
35.125
34.918
34.576
34.095
33.475
32.715
31.816
30.778
29.605
28.298
26.861
25.3
23.619
21.826
19.925
17.925
15.835
13.663
11.42
9.118
6.768
4.381
1.972
-0.446
-2.86
-5.257
-7.624
-9.948
-12.217
-14.419
-16.541
-18.575
-20.509
-22.336
-24.047
-25.633
-27.09
-28.411
-29.593
-30.634
-31.533
-32.289
-32.907
-33.393
-33.755
-34.001
-34.14
-34.183
-34.143
-34.032
-33.862
-33.643
-33.385
-33.1
-32.806
-32.518
-32.253
-32.024
-31.844
-31.727
-31.688
-31.739
-31.887
-32.132
-32.478
-32.934
-33.52
-34.263
-35.182
-36.282
-37.568
-39.042
-40.699
-42.533
-44.514
-46.589
-48.708
-50.827
-52.909
-54.935
-56.86
-58.624
-60.158
-61.382
-62.235
-62.694
-62.733
-62.327
-61.487
-60.237
-58.631
-56.805
-54.894
-53.02
-51.339
-49.97
-49.026
-48.704
-49.243
-50.786
-53.362
-56.781
-60.639
-64.569
-68.247
-71.234
-72.989
-73.069
-71.314
-68.173
-64.669
-61.857
-60.575
-61.479
-65.111
-71.712
-80.962
-91.427
-100.518
-105.123
-102.073
-88.556
-61.956
-20.055
38.541
113.82
204.004
305.607
413.711
522.878
627.042
719.419
793.12
841.723
860.015
846.935
805.878
740.511
653.948
545.316
411.25
255.979
94.373
-49.969
-152.757
-200.501
-198.8
-165.757
-119.937
-79.263
-49.193
-27.837
-17.003
-11.075
-7.59
-7.431
-6.203
-5.783
-7.9
-10.834
-15.033
-18.635
-19.84
-19.219
-17.315
-15.036
-13.373
-12.811
-13.782
-16.54
-21.052
-27.1
-34.286
-42.287
-50.823
-59.574
-68.254
-76.562
-84.261
-91.24
-97.442
-102.817
-107.329
-110.952
-113.667
-115.51
-116.534
-116.785
-116.313
-115.164
-113.391
-111.069
-108.277
-105.104
-101.615
-97.85
-93.838
-89.597
-85.14
-80.477
-75.606
-70.514
-65.189
-59.627
-53.829
-47.801
-41.549
-35.072
-28.37
-21.444
-14.301
-6.954
0.582
8.292
16.157
24.154
32.259
40.441
48.673
56.931
65.188
73.423
81.608
89.718
97.727
105.609
113.338
120.886
128.226
135.33
142.17
148.721
154.958
160.858
166.398
171.557
176.316
180.657
184.566
188.026
191.026
193.555
195.603
197.165
198.235
198.811
198.894
198.484
197.586
196.208
194.356
192.043
189.281
186.083
182.466
178.448
174.048
169.288
164.19
158.777
153.076
147.113
140.915
134.51
127.925
121.189
114.328
107.371
100.343
93.272
86.181
79.095
72.039
65.033
58.1
51.258
44.527
37.922
31.459
25.149
19.006
13.037
7.251
1.655
-3.748
-8.954
-13.961
-18.769
-23.38
-27.797
-32.022
-36.063
-39.924
-43.614
-47.142
-50.515
-53.745
-56.841
-59.814
-62.674
-65.432
-68.099
-70.685
-73.201
-75.659
-78.067
-80.436
-82.776
-85.096
-87.403
-89.704
-92.007
-94.317
-96.639
-98.978
-101.336
-103.717
-106.123
-108.555
-111.014
-113.5
-116.012
-118.547
-121.104
-123.679
-126.268
-128.867
-131.471
-134.073
-136.67
-139.253
-141.818
-144.358
-146.865
-149.332
-151.752
-154.116
-156.418
-158.649
-160.801
-162.867
-164.84
-166.711
-168.474
-170.122
-171.649
-173.048
-174.314
-175.439
-176.42
-177.25
-177.926
-178.443
-178.798
-178.989
-179.013
-178.87
-178.558
-178.078
-177.429
-176.613
-175.631
-174.486
-173.18
-171.716
-170.1
-168.334
-166.426
-164.381
-162.205
-159.906
-157.492
-154.97
-152.349
-149.638
-146.846
-143.982
-141.056
-138.08
-135.063
-132.017
-128.951
-125.877
-122.806
-119.747
-116.71
-113.705
-110.742
-107.828
-104.973
-102.183
-99.468
-96.833
-94.285
-91.83
-89.473
-87.218
-85.068
-83.027
-81.096
-79.276
-77.57
-75.975
-74.493
-73.122
-71.86
-70.705
-69.652
-68.698
-67.838
-67.066
-66.378
-65.766
-65.225
-64.748
-64.328
-63.96
-63.637
-63.352
-63.1
-62.874
-62.67
-62.481
-62.303
-62.132
-61.963
-61.793
-61.621
-61.443
-61.26
-61.069
-60.87
-60.664
-60.451
-60.233
-60.011
-59.788
-59.567
-59.351
-59.146
-58.955
-58.784
-58.638
-58.524
-58.446
-58.411
-58.424
-58.49
-58.613
-58.8
-59.053
-59.378
-59.779
-60.258
-60.817
-61.459
-62.182
-62.988
-63.874
-64.837
-65.874
-66.981
-68.152
-69.383
-70.666
-71.996
-73.364
-74.761
-76.179
-77.607
-79.035
-80.451
-81.843
-83.199
-84.507
-85.757
-86.936
-88.033
-89.037
-89.939
-90.728
-91.397
-91.936
-92.337
-92.594
-92.7
-92.653
-92.451
-92.092
-91.578
-90.912
-90.102
-89.158
-88.089
-86.904
-85.617
-84.239
-82.784
-81.266
-79.695
-78.081
-76.438
-74.78
-73.127
-71.499
-69.911
-68.382
-66.928
-65.565
-64.312
-63.179
-62.168
-61.284
-60.536
-59.94
-59.525
-59.315
-59.32
-59.547
-59.997
-60.656
-61.507
-62.51
-63.598
-64.714
-65.802
-66.819
-67.748
-68.556
-69.197
-69.622
-69.76
-69.563
-69.01
-68.069
-66.723
-65.013
-63.004
-60.819
-58.64
-56.589
-54.785
-53.369
-52.447
-52.155
-52.644
-53.993
-56.318
-59.801
-64.457
-70.194
-76.752
-83.487
-89.715
-94.878
-98.232
-99.039
-97.015
-92.192
-85.17
-77.45
-70.487
-65.337
-63.141
-64.731
-69.94
-77.782
-86.121
-91.144
-88.894
-75.875
-48.488
-3.83
59.431
141.097
239.016
348.222
462.487
575.119
678.192
763.6
824.191
854.016
850.698
816.586
755.215
669.799
560.175
424.397
267.256
102.298
-46.939
-156.301
-215.108
-228.403
-215.072
-195.541
-181.099
-173.301
-166.775
-157.983
-147.512
-138.031
-133.377
-134.35
-139.102
-145.661
-151.431
-154.351
-153.847
-149.79
-142.581
-133.297
-122.911
-112.215
-102.105
-93.341
-86.308
-81.187
-77.905
-76.158
-75.676
-76.217
-77.523
-79.351
-81.476
-83.678
-85.723
-87.391
-88.51
-88.953
-88.635
-87.513
-85.559
-82.764
-79.169
-74.843
-69.853
-64.267
-58.138
-51.51
-44.459
-37.071
-29.445
-21.688
-13.873
-6.047
1.752
9.499
17.184
24.802
32.37
39.92
47.47
55.029
62.603
70.19
77.797
85.434
93.109
100.828
108.592
116.398
124.243
132.121
140.021
147.927
155.822
163.683
171.49
179.226
186.873
194.413
201.827
209.095
216.197
223.113
229.823
236.302
242.528
248.475
254.119
259.436
264.403
268.997
273.194
276.975
280.317
283.204
285.618
287.543
288.965
289.873
290.258
290.112
289.431
288.211
286.453
284.158
281.332
277.982
274.116
269.747
264.889
259.558
253.771
247.551
240.918
233.898
226.516
218.801
210.781
202.489
193.956
185.216
176.301
167.246
158.086
148.856
139.588
130.317
121.076
111.897
102.811
93.848
85.037
76.403
67.973
59.77
51.815
44.128
36.728
29.631
22.852
16.402
10.294
4.535
-0.867
-5.908
-10.584
-14.895
-18.841
-22.424
-25.647
-28.517
-31.038
-33.22
-35.07
-36.6
-37.818
-38.738
-39.372
-39.732
-39.833
-39.687
-39.308
-38.711
-37.907
-36.911
-35.736
-34.394
-32.899
-31.262
-29.495
-27.612
-25.624
-23.542
-21.377
-19.139
-16.84
-14.486
-12.089
-9.655
-7.192
-4.709
-2.212
0.292
2.796
5.295
7.783
10.254
12.705
15.129
17.525
19.887
22.213
24.499
26.742
28.938
31.083
33.176
35.213
37.19
39.107
40.96
42.748
44.471
46.127
47.716
49.237
50.691
52.077
53.395
54.647
55.831
56.951
58.006
58.999
59.932
60.807
61.626
62.392
63.108
63.776
64.398
64.978
65.518
66.02
66.488
66.924
67.333
67.717
68.08
68.425
68.754
69.07
69.374
69.668
69.951
70.226
70.491
70.747
70.993
71.229
71.455
71.667
71.866
72.049
72.214
72.357
72.476
72.568
72.629
72.655
72.645
72.594
72.499
72.357
72.166
71.921
71.62
71.258
70.832
70.34
69.777
69.141
68.43
67.642
66.777
65.834
64.813
63.713
62.537
61.284
59.956
58.554
57.079
55.533
53.919
52.238
50.494
48.688
46.823
44.902
42.928
40.902
38.826
36.702
34.531
32.315
30.055
27.752
25.408
23.025
20.605
18.149
15.659
13.135
10.578
7.99
5.369
2.717
0.032
-2.686
-5.437
-8.22
-11.035
-13.882
-16.759
-19.667
-22.604
-25.566
-28.552
-31.559
-34.585
-37.624
-40.672
-43.724
-46.772
-49.81
-52.83
-55.826
-58.788
-61.708
-64.579
-67.391
-70.139
-72.814
-75.408
-77.913
-80.323
-82.629
-84.826
-86.908
-88.867
-90.698
-92.398
-93.962
-95.39
-96.678
-97.828
-98.842
-99.726
-100.486
-101.13
-101.668
-102.109
-102.466
-102.752
-102.98
-103.159
-103.303
-103.424
-103.539
-103.667
-103.826
-104.032
-104.299
-104.643
-105.08
-105.625
-106.289
-107.07
-107.976
-109.015
-110.206
-111.577
-113.148
-114.927
-116.919
-119.123
-121.533
-124.14
-126.914
-129.802
-132.758
-135.736
-138.706
-141.654
-144.547
-147.332
-149.946
-152.309
-154.368
-156.091
-157.446
-158.414
-159.002
-159.241
-159.203
-159.005
-158.747
-158.527
-158.448
-158.594
-159.074
-160.002
-161.52
-163.833
-167.031
-171.046
-175.671
-180.5
-185.06
-188.985
-191.82
-192.893
-191.803
-188.595
-183.748
-178.427
-173.89
-170.832
-169.797
-171.489
-176.206
-183.394
-191.545
-197.741
-198.408
-190.888
-173.094
-142.532
-96.852
-34.797
43.572
134.113
229.143
322.891
411.465
495.61
579.164
658.888
725.301
762.465
752.195
688.957
578.013
432.291
272.679
115.336
-26.56
-138.627
-213.825
-249.315
-248.429
-222.51
-184.846
-149.232
-124.586
-116.103
-122.436
-134.536
-145.632
-149.53
-145.059
-138.448
-133.195
-130.818
-130.588
-128.655
-123.488
-115.622
-105.925
-95.78
-85.963
-76.722
-68.557
-61.878
-56.806
-53.239
-50.924
-49.636
-49.213
-49.529
-50.409
-51.624
-52.981
-54.285
-55.352
-56.045
-56.26
-55.919
-54.984
-53.436
-51.268
-48.516
-45.237
-41.483
-37.31
-32.757
-27.858
-22.669
-17.26
-11.71
-6.104
-0.498
5.076
10.589
16.028
21.388
26.67
31.894
37.091
42.282
47.477
52.687
57.91
63.157
68.439
73.763
79.136
84.561
90.036
95.559
101.125
106.725
112.344
117.967
123.573
129.143
134.66
140.106
145.462
150.71
155.83
160.802
165.608
170.227
174.638
178.82
182.749
186.405
189.768
192.817
195.532
197.896
199.893
201.506
202.724
203.533
203.925
203.891
203.426
202.525
201.187
199.411
197.202
194.562
191.5
188.024
184.147
179.883
175.246
170.255
164.929
159.29
153.358
147.158
140.714
134.052
127.197
120.178
113.021
105.756
98.411
91.013
83.592
76.175
68.788
61.457
54.208
47.063
40.046
33.178
26.478
19.965
13.656
7.566
1.709
-3.904
-9.261
-14.356
-19.181
-23.732
-28.005
-31.999
-35.715
-39.153
-42.316
-45.208
-47.834
-50.201
-52.316
-54.187
-55.824
-57.237
-58.437
-59.436
-60.246
-60.878
-61.347
-61.664
-61.842
-61.895
-61.834
-61.674
-61.426
-61.103
-60.718
-60.283
-59.809
-59.308
-58.791
-58.268
-57.75
-57.245
-56.763
-56.312
-55.9
-55.535
-55.224
-54.974
-54.79
-54.677
-54.641
-54.685
-54.812
-55.026
-55.328
-55.72
-56.202
-56.774
-57.437
-58.189
-59.03
-59.956
-60.965
-62.055
-63.222
-64.461
-65.768
-67.137
-68.563
-70.04
-71.561
-73.12
-74.708
-76.32
-77.946
-79.578
-81.21
-82.831
-84.435
-86.011
-87.552
-89.05
-90.496
-91.883
-93.204
-94.451
-95.619
-96.701
-97.692
-98.588
-99.384
-100.077
-100.664
-101.142
-101.51
-101.766
-101.911
-101.945
-101.869
-101.685
-101.395
-101.003
-100.513
-99.929
-99.255
-98.496
-97.659
-96.75
-95.774
-94.739
-93.65
-92.516
-91.343
-90.137
-88.905
-87.653
-86.388
-85.114
-83.836
-82.559
-81.287
-80.023
-78.77
-77.53
-76.304
-75.095
-73.903
-72.727
-71.568
-70.425
-69.296
-68.179
-67.072
-65.974
-64.881
-63.79
-62.7
-61.606
-60.506
-59.399
-58.28
-57.148
-56.001
-54.837
-53.655
-52.454
-51.234
-49.996
-48.741
-47.471
-46.19
-44.901
-43.609
-42.319
-41.036
-39.766
-38.518
-37.297
-36.111
-34.968
-33.876
-32.843
-31.877
-30.987
-30.18
-29.464
-28.844
-28.327
-27.919
-27.623
-27.444
-27.383
-27.443
-27.625
-27.927
-28.348
-28.886
-29.535
-30.29
-31.144
-32.089
-33.113
-34.206
-35.353
-36.541
-37.754
-38.978
-40.195
-41.387
-42.538
-43.628
-44.64
-45.555
-46.356
-47.023
-47.539
-47.888
-48.055
-48.027
-47.789
-47.33
-46.642
-45.717
-44.549
-43.135
-41.473
-39.56
-37.401
-35
-32.364
-29.502
-26.425
-23.147
-19.688
-16.069
-12.315
-8.451
-4.501
-0.496
3.535
7.563
11.559
15.498
19.355
23.101
26.706
30.139
33.371
36.376
39.13
41.607
43.786
45.645
47.176
48.373
49.231
49.741
49.885
49.638
48.985
47.923
46.456
44.592
42.349
39.749
36.84
33.685
30.348
26.879
23.317
19.691
16.041
12.427
8.919
5.592
2.503
-0.303
-2.79
-4.949
-6.789
-8.355
-9.73
-11.013
-12.299
-13.687
-15.264
-17.118
-19.347
-22.028
-25.29
-29.307
-34.152
-39.762
-45.884
-52.029
-57.678
-62.418
-65.757
-67.056
-65.901
-62.338
-56.977
-51.101
-46.067
-42.691
-41.584
-43.558
-49.006
-57.369
-67.035
-74.92
-77.466
-72.13
-56.5
-27.662
16.805
78.645
156.51
244.762
337.537
429.522
519.71
611.737
703.21
786.761
848.268
866.905
832.682
746.142
614.418
453.126
276.904
98.342
-63.857
-188.224
-261.937
-281.696
-259.472
-221.001
-183.923
-156.433
-138.456
-120.826
-100.435
-79.692
-61.322
-49.569
-45.067
-45.06
-47.116
-48.832
-48.286
-45.054
-39.358
-31.582
-22.586
-13.281
-4.358
3.448
9.444
13.38
15.295
15.363
13.966
11.424
7.949
3.833
-0.647
-5.242
-9.682
-13.801
-17.527
-20.783
-23.524
-25.718
-27.319
-28.336
-28.827
-28.837
-28.415
-27.598
-26.399
-24.858
-23.03
-20.976
-18.769
-16.453
-14.041
-11.544
-8.959
-6.277
-3.489
-0.565
2.543
5.87
9.443
13.283
17.398
21.803
26.518
31.556
36.926
42.632
48.667
55.026
61.698
68.667
75.91
83.401
91.106
98.991
107.025
115.174
123.403
131.673
139.945
148.178
156.333
164.368
172.238
179.9
187.308
194.42
201.193
207.587
213.562
219.08
224.106
228.607
232.553
235.917
238.676
240.807
242.296
243.128
243.295
242.792
241.618
239.775
237.27
234.116
230.326
225.92
220.92
215.353
209.247
202.636
195.556
188.043
180.139
171.887
163.331
154.518
145.495
136.31
127.013
117.651
108.275
98.931
89.667
80.529
71.561
62.806
54.304
46.092
38.207
30.681
23.543
16.819
10.532
4.703
-0.653
-5.524
-9.901
-13.777
-17.151
-20.024
-22.4
-24.288
-25.698
-26.644
-27.142
-27.213
-26.878
-26.161
-25.088
-23.687
-21.987
-20.018
-17.814
-15.406
-12.827
-10.113
-7.295
-4.409
-1.488
1.437
4.332
7.167
9.913
12.542
15.028
17.346
19.474
21.391
23.079
24.52
25.702
26.612
27.239
27.577
27.62
27.365
26.812
25.962
24.819
23.388
21.677
19.695
17.452
14.963
12.24
9.299
6.158
2.835
-0.652
-4.282
-8.035
-11.89
-15.826
-19.822
-23.856
-27.908
-31.958
-35.986
-39.972
-43.899
-47.749
-51.505
-55.151
-58.673
-62.057
-65.292
-68.366
-71.27
-73.996
-76.536
-78.886
-81.041
-82.998
-84.755
-86.311
-87.667
-88.825
-89.788
-90.559
-91.144
-91.549
-91.78
-91.846
-91.754
-91.512
-91.131
-90.619
-89.986
-89.24
-88.393
-87.454
-86.431
-85.334
-84.174
-82.957
-81.694
-80.392
-79.058
-77.7
-76.325
-74.938
-73.545
-72.151
-70.761
-69.379
-68.009
-66.653
-65.316
-63.998
-62.702
-61.43
-60.182
-58.96
-57.763
-56.591
-55.446
-54.325
-53.23
-52.159
-51.112
-50.088
-49.087
-48.108
-47.15
-46.212
-45.295
-44.396
-43.516
-42.653
-41.809
-40.981
-40.172
-39.379
-38.604
-37.847
-37.108
-36.389
-35.688
-35.008
-34.35
-33.713
-33.1
-32.511
-31.947
-31.41
-30.902
-30.423
-29.974
-29.557
-29.174
-28.824
-28.511
-28.234
-27.996
-27.799
-27.643
-27.531
-27.464
-27.446
-27.476
-27.559
-27.697
-27.891
-28.145
-28.46
-28.839
-29.285
-29.799
-30.384
-31.04
-31.77
-32.574
-33.453
-34.407
-35.436
-36.539
-37.714
-38.961
-40.277
-41.661
-43.109
-44.618
-46.184
-47.802
-49.467
-51.173
-52.913
-54.679
-56.463
-58.256
-60.049
-61.832
-63.594
-65.323
-67.008
-68.636
-70.195
-71.672
-73.054
-74.328
-75.481
-76.501
-77.378
-78.101
-78.66
-79.045
-79.249
-79.266
-79.093
-78.724
-78.157
-77.39
-76.425
-75.264
-73.911
-72.371
-70.653
-68.767
-66.728
-64.551
-62.255
-59.859
-57.381
-54.845
-52.273
-49.689
-47.114
-44.569
-42.078
-39.665
-37.362
-35.196
-33.195
-31.384
-29.789
-28.433
-27.345
-26.542
-26.033
-25.828
-25.939
-26.387
-27.201
-28.402
-29.995
-31.984
-34.365
-37.126
-40.251
-43.703
-47.42
-51.343
-55.417
-59.6
-63.869
-68.184
-72.484
-76.699
-80.746
-84.569
-88.143
-91.433
-94.4
-97.052
-99.419
-101.586
-103.692
-105.821
-108.045
-110.45
-113.116
-116.161
-119.718
-123.882
-128.77
-134.528
-141.156
-148.537
-156.42
-164.29
-171.612
-177.943
-182.695
-185.212
-185.193
-182.736
-178.378
-173.227
-168.306
-164.131
-161.281
-160.534
-162.041
-165.084
-168.01
-168.009
-162.196
-148.506
-124.744
-88.331
-37.644
27.673
106.827
196.844
293.579
393.411
489.469
573.711
641.527
686.813
709.707
714.866
697.676
656.414
584.301
468.076
314.92
138.086
-39.814
-181.527
-271.005
-306.585
-298.491
-274.894
-252.096
-235.029
-223.248
-207.611
-185.567
-160.794
-136.996
-118.972
-108.186
-103.058
-102.56
-105.347
-109.69
-114.407
-118.277
-120.687
-121.901
-122.227
-121.61
-119.854
-117.17
-114.126
-111.603
-110.17
-109.802
-110.35
-111.733
-114.009
-117.181
-120.938
-124.667
-127.872
-130.33
-131.963
-132.812
-132.853
-131.994
-130.247
-127.724
-124.542
-120.801
-116.545
-111.758
-106.459
-100.706
-94.581
-88.19
-81.604
-74.859
-67.983
-60.997
-53.913
-46.751
-39.508
-32.164
-24.707
-17.136
-9.451
-1.671
6.193
14.14
22.169
30.282
38.473
46.732
55.042
63.389
71.756
80.119
88.455
96.733
104.925
113.007
120.954
128.743
136.348
143.744
150.905
157.808
164.426
170.735
176.709
182.322
187.552
192.376
196.774
200.724
204.21
207.213
209.721
211.719
213.199
214.152
214.572
214.455
213.801
212.611
210.888
208.64
205.875
202.604
198.842
194.605
189.913
184.787
179.25
173.33
167.052
160.448
153.548
146.382
138.986
131.392
123.638
115.757
107.788
99.767
91.731
83.716
75.758
67.893
60.155
52.576
45.188
38.021
31.103
24.46
18.118
12.098
6.421
1.104
-3.837
-8.388
-12.54
-16.284
-19.617
-22.534
-25.037
-27.127
-28.81
-30.09
-30.978
-31.484
-31.619
-31.398
-30.836
-29.952
-28.764
-27.291
-25.557
-23.581
-21.388
-19
-16.442
-13.736
-10.908
-7.981
-4.978
-1.923
1.16
4.249
7.323
10.359
13.34
16.245
19.057
21.76
24.339
26.78
29.072
31.201
33.16
34.937
36.526
37.92
39.113
40.101
40.881
41.451
41.81
41.958
41.898
41.63
41.158
40.486
39.617
38.557
37.311
35.887
34.29
32.528
30.61
28.542
26.334
23.994
21.53
18.95
16.264
13.479
10.604
7.646
4.615
1.518
-1.635
-4.838
-8.081
-11.356
-14.655
-17.971
-21.295
-24.621
-27.94
-31.246
-34.532
-37.791
-41.016
-44.202
-47.342
-50.43
-53.461
-56.429
-59.331
-62.161
-64.914
-67.588
-70.179
-72.682
-75.095
-77.416
-79.64
-81.766
-83.792
-85.715
-87.536
-89.253
-90.866
-92.375
-93.78
-95.083
-96.285
-97.387
-98.391
-99.3
-100.115
-100.84
-101.476
-102.028
-102.498
-102.889
-103.205
-103.45
-103.626
-103.738
-103.789
-103.783
-103.722
-103.611
-103.454
-103.252
-103.01
-102.731
-102.418
-102.073
-101.7
-101.3
-100.877
-100.432
-99.966
-99.481
-98.977
-98.457
-97.92
-97.367
-96.799
-96.216
-95.618
-95.005
-94.378
-93.738
-93.085
-92.419
-91.741
-91.053
-90.354
-89.645
-88.929
-88.206
-87.476
-86.743
-86.006
-85.269
-84.532
-83.798
-83.068
-82.345
-81.631
-80.929
-80.24
-79.567
-78.913
-78.28
-77.67
-77.086
-76.531
-76.005
-75.511
-75.049
-74.623
-74.231
-73.875
-73.554
-73.266
-73.011
-72.787
-72.591
-72.42
-72.268
-72.132
-72.007
-71.888
-71.769
-71.644
-71.504
-71.344
-71.157
-70.935
-70.669
-70.351
-69.972
-69.525
-69.002
-68.394
-67.693
-66.892
-65.982
-64.958
-63.815
-62.547
-61.149
-59.617
-57.948
-56.141
-54.195
-52.112
-49.892
-47.539
-45.06
-42.464
-39.762
-36.965
-34.085
-31.136
-28.132
-25.089
-22.021
-18.939
-15.854
-12.781
-9.738
-6.744
-3.818
-0.975
1.768
4.393
6.881
9.215
11.384
13.385
15.21
16.848
18.278
19.468
20.4
21.066
21.456
21.568
21.407
20.979
20.316
19.466
18.474
17.378
16.201
14.958
13.682
12.417
11.215
10.131
9.198
8.432
7.859
7.479
7.262
7.152
7.052
6.849
6.45
5.753
4.654
3.036
0.77
-2.246
-6.132
-11.042
-17.026
-24.029
-31.857
-40.069
-48.149
-55.656
-62.063
-66.772
-69.442
-69.99
-68.78
-66.787
-65.105
-64.602
-66.036
-70.122
-77.194
-87.002
-98.315
-108.709
-115.084
-114.473
-104.319
-81.858
-44.404
9.916
81.6
167.275
259.98
353.392
442.857
528.434
612.819
691.968
755.687
787.314
769.168
696.433
573.678
412.381
231.5
46.929
-123.117
-255.441
-337.514
-366.133
-350.982
-316.516
-279.791
-248.796
-224.261
-198.072
-168.109
-137.263
-108.641
-87.357
-75.152
-70.514
-71.676
-75.596
-78.959
-80.319
-79.224
-75.516
-69.444
-60.988
-50.245
-38.24
-26.599
-16.355
-7.912
-1.311
3.69
7.036
8.619
8.784
8.157
7.31
6.672
6.409
6.492
6.991
8.001
9.542
11.602
14.099
16.928
20.045
23.443
27.116
31.051
35.198
39.482
43.826
48.152
52.41
56.582
60.652
64.614
68.47
72.222
75.895
79.532
83.164
86.812
90.489
94.202
97.97
101.819
105.773
109.851
114.062
118.411
122.901
127.535
132.31
137.218
142.244
147.37
152.578
157.855
163.184
168.548
173.925
179.294
184.631
189.913
195.117
200.214
205.176
209.975
214.582
218.968
223.107
226.971
230.533
233.769
236.655
239.169
241.291
243.003
244.287
245.13
245.519
245.445
244.902
243.884
242.39
240.422
237.984
235.083
231.73
227.937
223.718
219.092
214.078
208.699
202.977
196.94
190.614
184.03
177.219
170.215
163.051
155.76
148.379
140.941
133.482
126.036
118.635
111.312
104.1
97.027
90.124
83.419
76.936
70.7
64.732
59.053
53.679
48.627
43.907
39.531
35.506
31.839
28.532
25.587
23.004
20.78
18.909
17.384
16.198
15.338
14.793
14.548
14.587
14.893
15.449
16.237
17.236
18.427
19.789
21.304
22.949
24.704
26.549
28.464
30.43
32.426
34.436
36.442
38.427
40.377
42.276
44.112
45.872
47.545
49.121
50.589
51.943
53.174
54.277
55.247
56.08
56.773
57.325
57.735
58.004
58.134
58.126
57.983
57.708
57.306
56.782
56.139
55.383
54.52
53.555
52.496
51.346
50.113
48.802
47.418
45.967
44.453
42.882
41.256
39.581
37.86
36.097
34.295
32.458
30.588
28.687
26.759
24.804
22.824
20.82
18.794
16.744
14.672
12.577
10.459
8.318
6.153
3.964
1.75
-0.489
-2.754
-5.045
-7.363
-9.708
-12.08
-14.478
-16.902
-19.35
-21.821
-24.314
-26.824
-29.351
-31.891
-34.441
-36.997
-39.556
-42.113
-44.666
-47.208
-49.737
-52.247
-54.734
-57.193
-59.619
-62.008
-64.354
-66.653
-68.901
-71.092
-73.224
-75.292
-77.293
-79.223
-81.081
-82.863
-84.567
-86.191
-87.735
-89.198
-90.579
-91.879
-93.1
-94.242
-95.309
-96.303
-97.228
-98.087
-98.886
-99.627
-100.316
-100.957
-101.555
-102.116
-102.643
-103.142
-103.618
-104.076
-104.519
-104.952
-105.379
-105.802
-106.223
-106.644
-107.065
-107.487
-107.91
-108.331
-108.751
-109.167
-109.577
-109.978
-110.365
-110.735
-111.081
-111.398
-111.678
-111.913
-112.096
-112.219
-112.271
-112.245
-112.133
-111.926
-111.617
-111.197
-110.659
-109.996
-109.2
-108.266
-107.189
-105.963
-104.586
-103.056
-101.375
-99.544
-97.568
-95.452
-93.202
-90.826
-88.333
-85.732
-83.035
-80.253
-77.399
-74.489
-71.539
-68.569
-65.601
-62.656
-59.759
-56.931
-54.198
-51.583
-49.107
-46.788
-44.644
-42.692
-40.948
-39.43
-38.151
-37.125
-36.363
-35.878
-35.677
-35.765
-36.14
-36.799
-37.736
-38.941
-40.409
-42.132
-44.106
-46.336
-48.818
-51.544
-54.505
-57.685
-61.057
-64.592
-68.248
-71.969
-75.696
-79.37
-82.93
-86.325
-89.509
-92.436
-95.047
-97.274
-99.061
-100.37
-101.184
-101.482
-101.223
-100.392
-99.026
-97.229
-95.155
-92.953
-90.73
-88.625
-86.811
-85.396
-84.414
-83.752
-83.067
-82.006
-80.313
-77.695
-73.874
-68.748
-62.41
-55.384
-48.694
-43.414
-40.402
-40.342
-43.761
-50.782
-60.948
-72.82
-83.949
-91.487
-92.643
-84.907
-65.887
-33.697
12.709
73.036
145.379
226.668
312.856
399.424
481.378
553.096
608.803
643.717
653.995
638.683
600.685
541.109
461.037
360.958
238.381
101.704
-32.57
-147.963
-225.391
-261.425
-268.006
-256.103
-239.422
-223.78
-204.513
-181.562
-156.16
-130.407
-109.734
-96.172
-88.811
-86.521
-87.263
-88.714
-89.212
-87.886
-84.37
-78.961
-72.419
-65.337
-58.227
-51.828
-46.806
-43.463
-41.881
-41.838
-42.927
-44.862
-47.387
-50.221
-53.09
-55.717
-57.89
-59.502
-60.515
-60.901
-60.645
-59.721
-58.117
-55.874
-53.049
-49.707
-45.909
-41.701
-37.135
-32.276
-27.199
-21.989
-16.707
-11.387
-6.05
-0.707
4.638
9.979
15.321
20.69
26.106
31.585
37.139
42.77
48.485
54.296
60.213
66.249
72.404
78.676
85.06
91.55
98.137
104.807
111.544
118.326
125.132
131.947
138.751
145.526
152.252
158.907
165.469
171.918
178.23
184.381
190.345
196.097
201.611
206.863
211.829
216.485
220.807
224.773
228.363
231.557
234.336
236.683
238.582
240.02
240.984
241.465
241.454
240.945
239.935
238.423
236.408
233.895
230.889
227.399
223.433
219.006
214.131
208.826
203.108
196.999
190.521
183.699
176.558
169.127
161.433
153.509
145.384
137.091
128.662
120.131
111.532
102.896
94.259
85.652
77.109
68.662
60.341
52.178
44.201
36.439
28.917
21.662
14.695
8.039
1.712
-4.268
-9.886
-15.129
-19.986
-24.449
-28.511
-32.168
-35.418
-38.261
-40.699
-42.737
-44.382
-45.643
-46.531
-47.059
-47.244
-47.1
-46.649
-45.91
-44.906
-43.659
-42.195
-40.54
-38.72
-36.763
-34.697
-32.551
-30.353
-28.134
-25.922
-23.745
-21.632
-19.61
-17.706
-15.946
-14.355
-12.955
-11.77
-10.819
-10.124
-9.701
-9.566
-9.733
-10.215
-11.021
-12.159
-13.634
-15.448
-17.602
-20.093
-22.919
-26.07
-29.54
-33.316
-37.386
-41.733
-46.341
-51.191
-56.261
-61.529
-66.97
-72.56
-78.272
-84.08
-89.956
-95.871
-101.797
-107.706
-113.569
-119.358
-125.044
-130.6
-135.998
-141.213
-146.22
-150.994
-155.515
-159.763
-163.718
-167.366
-170.693
-173.686
-176.338
-178.64
-180.589
-182.182
-183.421
-184.308
-184.85
-185.053
-184.93
-184.492
-183.753
-182.732
-181.446
-179.914
-178.158
-176.2
-174.065
-171.776
-169.359
-166.84
-164.247
-161.607
-158.946
-156.292
-153.671
-151.11
-148.632
-146.263
-144.025
-141.938
-140.022
-138.295
-136.772
-135.467
-134.391
-133.553
-132.958
-132.611
-132.512
-132.661
-133.053
-133.681
-134.537
-135.61
-136.888
-138.356
-139.998
-141.796
-143.73
-145.778
-147.919
-150.129
-152.381
-154.649
-156.907
-159.128
-161.285
-163.351
-165.298
-167.099
-168.73
-170.164
-171.38
-172.353
-173.062
-173.488
-173.613
-173.422
-172.903
-172.045
-170.841
-169.284
-167.373
-165.109
-162.494
-159.534
-156.234
-152.605
-148.659
-144.41
-139.875
-135.074
-130.028
-124.761
-119.304
-113.686
-107.94
-102.095
-96.187
-90.249
-84.316
-78.421
-72.593
-66.864
-61.265
-55.831
-50.597
-45.592
-40.845
-36.382
-32.227
-28.406
-24.94
-21.841
-19.115
-16.772
-14.825
-13.296
-12.209
-11.578
-11.402
-11.675
-12.392
-13.543
-15.11
-17.054
-19.315
-21.837
-24.575
-27.495
-30.566
-33.735
-36.93
-40.066
-43.07
-45.89
-48.497
-50.862
-52.953
-54.767
-56.324
-57.673
-58.911
-60.134
-61.417
-62.856
-64.546
-66.565
-69.077
-72.299
-76.3
-81.033
-86.282
-91.629
-96.744
-101.398
-105.2
-107.653
-108.454
-107.554
-105.51
-103.423
-102.105
-102.048
-103.616
-107.083
-112.623
-119.972
-127.661
-133.21
-134.239
-128.57
-114.48
-90.331
-54.298
-5.334
56.411
129.545
211.482
299.15
388.065
471.404
543.954
601.878
644.057
673.863
689.117
684.062
650.908
578.688
467.517
326.187
171.483
28.702
-84.614
-157.681
-191.089
-198.782
-191.78
-179.76
-167.161
-149.933
-128.043
-103.541
-78.893
-59.116
-46.253
-39.552
-37.795
-38.914
-40.645
-41.212
-39.627
-35.536
-29.199
-21.367
-12.732
-3.875
4.427
11.396
16.637
20.003
21.623
21.875
21.04
19.328
17.008
14.337
11.544
8.871
6.475
4.42
2.769
1.56
0.814
0.565
0.81
1.503
2.586
3.996
5.678
7.595
9.702
11.939
14.238
16.521
18.735
20.855
22.868
24.77
26.566
28.26
29.874
31.448
33.022
34.628
36.292
38.033
39.875
41.847
43.979
46.299
48.826
51.575
54.559
57.789
61.271
65.01
69.001
73.235
77.705
82.404
87.323
92.453
97.778
103.284
108.952
114.763
120.695
126.722
132.816
138.945
145.08
151.188
157.237
163.192
169.019
174.684
180.153
185.392
190.367
195.046
199.397
203.387
206.99
210.178
212.927
215.214
217.019
218.326
219.121
219.393
219.135
218.341
217.01
215.143
212.745
209.824
206.391
202.46
198.048
193.175
187.865
182.144
176.038
169.577
162.793
155.718
148.387
140.834
133.096
125.207
117.205
109.126
101.007
92.883
84.79
76.762
68.83
61.027
53.383
45.923
38.674
31.659
24.899
18.411
12.211
6.313
0.727
-4.539
-9.481
-14.095
-18.382
-22.345
-25.988
-29.318
-32.347
-35.083
-37.542
-39.736
-41.683
-43.399
-44.903
-46.213
-47.35
-48.334
-49.187
-49.93
-50.583
-51.168
-51.707
-52.219
-52.724
-53.24
-53.786
-54.377
-55.029
-55.754
-56.566
-57.474
-58.488
-59.613
-60.856
-62.22
-63.707
-65.316
-67.045
-68.892
-70.85
-72.914
-75.076
-77.327
-79.657
-82.055
-84.51
-87.01
-89.542
-92.092
-94.647
-97.193
-99.715
-102.199
-104.631
-106.996
-109.283
-111.477
-113.567
-115.541
-117.388
-119.1
-120.668
-122.084
-123.342
-124.438
-125.367
-126.126
-126.715
-127.133
-127.383
-127.465
-127.384
-127.144
-126.751
-126.211
-125.531
-124.718
-123.779
-122.724
-121.561
-120.298
-118.944
-117.51
-116.004
-114.435
-112.812
-111.145
-109.441
-107.708
-105.954
-104.185
-102.407
-100.626
-98.845
-97.07
-95.303
-93.546
-91.802
-90.07
-88.353
-86.648
-84.955
-83.274
-81.6
-79.934
-78.27
-76.608
-74.944
-73.275
-71.599
-69.913
-68.215
-66.502
-64.775
-63.03
-61.267
-59.487
-57.687
-55.87
-54.036
-52.187
-50.325
-48.454
-46.577
-44.698
-42.824
-40.959
-39.11
-37.284
-35.487
-33.727
-32.011
-30.347
-28.742
-27.202
-25.736
-24.349
-23.047
-21.838
-20.726
-19.715
-18.81
-18.013
-17.327
-16.753
-16.291
-15.94
-15.697
-15.562
-15.53
-15.597
-15.758
-16.006
-16.334
-16.734
-17.199
-17.718
-18.282
-18.879
-19.496
-20.124
-20.751
-21.365
-21.954
-22.508
-23.016
-23.473
-23.872
-24.207
-24.472
-24.661
-24.771
-24.797
-24.735
-24.576
-24.315
-23.947
-23.472
-22.893
-22.212
-21.43
-20.55
-19.577
-18.517
-17.377
-16.159
-14.858
-13.474
-12.017
-10.504
-8.965
-7.421
-5.882
-4.357
-2.853
-1.368
0.102
1.584
3.123
4.761
6.527
8.436
10.49
12.707
15.121
17.774
20.708
23.939
27.468
31.297
35.408
39.753
44.245
48.76
53.148
57.278
61.028
64.273
66.886
68.732
69.678
69.582
68.271
65.682
61.891
57.106
51.752
46.326
41.264
37.093
34.483
33.821
35.065
37.774
40.948
43.521
44.886
44.502
41.65
36.132
28.627
20.667
14.911
14.365
21.287
37.827
66.42
108.833
165.672
236.144
317.533
405.804
496.908
586.173
667.725
735.284
782.929
805.791
802.33
774.617
724.852
654.293
560.582
439.486
292.937
133.001
-16.871
-131.523
-196.712
-215.208
-205.699
-188.061
-173.444
-162.145
-146.44
-122.239
-91.566
-59.281
-31.654
-11.421
1.531
7.193
6.841
2.434
-3.979
-10.123
-14.73
-17.64
-18.642
-17.147
-13.025
-6.754
0.555
7.395
12.94
17.079
19.78
20.934
20.511
18.618
15.709
12.578
9.778
7.535
5.954
5.033
4.797
5.332
6.642
8.613
11.143
14.167
17.646
21.606
26.045
30.906
36.119
41.595
47.245
53.026
58.91
64.877
70.914
77.009
83.15
89.35
95.627
101.991
108.441
114.967
121.555
128.202
134.911
141.684
148.519
155.405
162.325
169.262
176.197
183.107
189.966
196.744
203.408
209.929
216.28
222.437
228.372
234.06
239.473
244.588
249.38
253.826
257.902
261.589
264.864
267.709
270.109
272.049
273.516
274.502
274.999
275.002
274.512
273.527
272.054
270.098
267.67
264.783
261.452
257.695
253.534
248.99
244.091
238.864
233.338
227.546
221.521
215.298
208.913
202.401
195.802
189.151
182.485
175.841
169.256
162.766
156.404
150.205
144.201
138.421
132.894
127.645
122.699
118.076
113.792
109.863
106.299
103.11
100.299
97.868
95.816
94.137
92.825
91.868
91.251
90.958
90.968
91.259
91.805
92.579
93.551
94.69
95.962
97.335
98.772
100.239
101.699
103.117
104.456
105.68
106.754
107.645
108.317
108.741
108.885
108.722
108.225
107.371
106.14
104.513
102.474
100.011
97.114
93.777
89.994
85.766
81.094
75.985
70.446
64.49
58.13
51.383
44.27
36.812
29.034
20.961
12.623
4.047
-4.735
-13.69
-22.787
-31.989
-41.264
-50.577
-59.892
-69.174
-78.391
-87.508
-96.494
-105.316
-113.946
-122.355
-130.516
-138.406
-146
-153.278
-160.222
-166.816
-173.045
-178.898
-184.367
-189.445
-194.127
-198.413
-202.303
-205.8
-208.908
-211.636
-213.992
-215.987
-217.632
-218.943
-219.934
-220.622
-221.024
-221.159
-221.047
-220.707
-220.16
-219.425
-218.524
-217.477
-216.304
-215.024
-213.657
-212.222
-210.734
-209.212
-207.671
-206.125
-204.588
-203.071
-201.585
-200.14
-198.744
-197.403
-196.123
-194.908
-193.761
-192.684
-191.678
-190.743
-189.877
-189.078
-188.345
-187.673
-187.059
-186.498
-185.986
-185.517
-185.085
-184.685
-184.312
-183.96
-183.622
-183.294
-182.971
-182.648
-182.322
-181.988
-181.642
-181.283
-180.909
-180.516
-180.105
-179.674
-179.223
-178.753
-178.265
-177.76
-177.239
-176.705
-176.16
-175.606
-175.045
-174.481
-173.913
-173.346
-172.78
-172.217
-171.659
-171.107
-170.561
-170.021
-169.488
-168.96
-168.436
-167.913
-167.387
-166.855
-166.311
-165.751
-165.169
-164.559
-163.913
-163.224
-162.486
-161.689
-160.827
-159.89
-158.869
-157.754
-156.538
-155.211
-153.766
-152.195
-150.488
-148.642
-146.649
-144.507
-142.212
-139.76
-137.148
-134.379
-131.452
-128.37
-125.137
-121.759
-118.245
-114.609
-110.865
-107.029
-103.118
-99.15
-95.144
-91.122
-87.104
-83.106
-79.146
-75.244
-71.423
-67.709
-64.128
-60.702
-57.454
-54.409
-51.588
-49.019
-46.719
-44.696
-42.962
-41.532
-40.431
-39.696
-39.352
-39.409
-39.875
-40.752
-42.033
-43.714
-45.763
-48.123
-50.741
-53.568
-56.567
-59.725
-63.005
-66.351
-69.692
-72.944
-76.055
-79.004
-81.77
-84.332
-86.697
-88.903
-91.033
-93.217
-95.563
-98.164
-101.111
-104.497
-108.439
-113.045
-118.46
-124.861
-132.315
-140.767
-150.007
-159.623
-169.153
-178.185
-186.18
-192.496
-196.697
-198.588
-198.507
-197.395
-196.211
-195.734
-196.623
-199.423
-204.523
-211.939
-220.542
-227.924
-231.286
-227.865
-215.009
-190.247
-150.926
-94.376
-21.229
64.196
157.298
252.63
349.716
453.624
562.262
668.199
754.749
796.323
781.325
709.868
593.353
453.64
302.195
146.513
-4.59
-141.487
-247.848
-312.197
-335.407
-328.744
-307.449
-281.796
-254.173
-221.262
-181.749
-139.17
-99.16
-67.95
-48.964
-42.084
-45.868
-57.845
-75.053
-94.379
-112.905
-128.548
-139.833
-146.139
-147.593
-144.77
-138.83
-131.427
-124.156
-118.074
-113.876
-111.823
-111.816
-113.644
-116.873
-120.836
-124.82
-128.346
-131.155
-133.148
-134.364
-134.81
-134.488
-133.453
-131.794
-129.575
-126.822
-123.536
-119.697
-115.324
-110.476
-105.231
-99.683
-93.897
-87.91
-81.749
-75.435
-68.986
-62.418
-55.738
-48.939
-42.017
-34.981
-27.842
-20.615
-13.308
-5.921
1.552
9.116
16.766
24.494
32.287
40.13
48.01
55.906
63.796
71.652
79.451
87.171
94.791
102.29
109.646
116.835
123.831
130.613
137.157
143.437
149.428
155.105
160.444
165.422
170.016
174.206
177.97
181.29
184.148
186.53
188.422
189.811
190.689
191.047
190.879
190.182
188.955
187.199
184.917
182.117
178.806
174.997
170.702
165.939
160.725
155.081
149.03
142.596
135.806
128.688
121.272
113.59
105.675
97.562
89.285
80.883
72.39
63.845
55.283
46.741
38.255
29.86
21.589
13.476
5.551
-2.154
-9.61
-16.792
-23.674
-30.233
-36.447
-42.299
-47.772
-52.852
-57.528
-61.79
-65.631
-69.048
-72.038
-74.602
-76.742
-78.463
-79.774
-80.682
-81.201
-81.344
-81.125
-80.563
-79.675
-78.481
-77.001
-75.258
-73.273
-71.068
-68.668
-66.094
-63.37
-60.518
-57.563
-54.526
-51.43
-48.295
-45.144
-41.995
-38.867
-35.779
-32.747
-29.787
-26.914
-24.141
-21.479
-18.94
-16.532
-14.263
-12.139
-10.165
-8.343
-6.677
-5.166
-3.809
-2.605
-1.55
-0.642
0.126
0.758
1.26
1.639
1.901
2.055
2.109
2.069
1.946
1.746
1.48
1.154
0.779
0.361
-0.089
-0.565
-1.058
-1.56
-2.065
-2.564
-3.052
-3.523
-3.969
-4.387
-4.772
-5.12
-5.427
-5.691
-5.91
-6.081
-6.203
-6.275
-6.297
-6.267
-6.187
-6.055
-5.873
-5.64
-5.358
-5.028
-4.65
-4.226
-3.758
-3.246
-2.692
-2.099
-1.468
-0.801
-0.102
0.629
1.387
2.171
2.976
3.799
4.637
5.487
6.345
7.208
8.072
8.933
9.789
10.635
11.468
12.284
13.08
13.852
14.597
15.311
15.99
16.631
17.231
17.786
18.292
18.746
19.145
19.486
19.765
19.98
20.129
20.209
20.218
20.156
20.023
19.818
19.541
19.195
18.78
18.3
17.758
17.158
16.503
15.799
15.051
14.266
13.451
12.612
11.756
10.892
10.027
9.17
8.331
7.518
6.74
6.007
5.33
4.719
4.186
3.741
3.394
3.156
3.037
3.048
3.197
3.495
3.947
4.562
5.347
6.308
7.449
8.772
10.28
11.973
13.853
15.916
18.16
20.579
23.166
25.916
28.822
31.872
35.057
38.364
41.779
45.291
48.882
52.537
56.232
59.945
63.654
67.337
70.969
74.526
77.982
81.313
84.5
87.525
90.368
93.009
95.424
97.594
99.499
101.125
102.454
103.469
104.155
104.506
104.525
104.211
103.564
102.575
101.227
99.511
97.431
94.987
92.189
89.056
85.611
81.902
77.998
73.965
69.859
65.729
61.609
57.547
53.604
49.844
46.332
43.113
40.22
37.695
35.561
33.791
32.323
31.044
29.808
28.519
27.088
25.397
23.335
20.77
17.557
13.617
8.862
3.148
-3.567
-11.219
-19.575
-28.05
-35.968
-42.751
-47.752
-50.307
-50.067
-46.976
-41.437
-34.707
-28.202
-23.007
-20.195
-20.615
-24.407
-30.977
-38.755
-44.611
-44.788
-35.883
-14.745
21.492
74.929
146.425
235.276
336.679
442.426
544.821
637.64
719.411
791.522
850.652
888.766
892.764
848.842
753.711
611.442
432.4
235.969
39.761
-136.635
-270.74
-352.882
-380.988
-359.986
-306.764
-235.443
-159.197
-94.737
-51.206
-32.61
-36.034
-48.2
-58.469
-62.1
-59.722
-58.378
-62.224
-70.542
-81.05
-89.556
-93.436
-92.873
-88.663
-82.116
-74.852
-68.043
-62.311
-58.09
-55.638
-54.919
-55.841
-58.182
-61.359
-64.685
-67.67
-70.002
-71.54
-72.289
-72.223
-71.301
-69.555
-67.067
-63.929
-60.21
-55.939
-51.114
-45.749
-39.905
-33.664
-27.124
-20.388
-13.523
-6.568
0.442
7.479
14.525
21.559
28.579
35.604
42.639
49.68
56.72
63.747
70.759
77.768
84.783
91.811
98.852
105.9
112.947
119.986
127.009
134.001
140.944
147.816
154.599
161.28
167.843
174.275
180.559
186.677
192.612
198.35
203.872
209.16
214.197
218.961
223.437
227.606
231.454
234.964
238.121
240.911
243.322
245.341
246.96
248.168
248.956
249.317
249.248
248.744
247.804
246.428
244.619
242.381
239.72
236.646
233.168
229.298
225.049
220.438
215.481
210.196
204.604
198.724
192.58
186.196
179.596
172.807
165.854
158.764
151.563
144.28
136.94
129.57
122.197
114.845
107.54
100.306
93.168
86.146
79.263
72.539
65.991
59.637
53.492
47.57
41.881
36.437
31.244
26.31
21.64
17.237
13.102
9.236
5.636
2.301
-0.775
-3.598
-6.174
-8.513
-10.623
-12.515
-14.201
-15.691
-16.999
-18.137
-19.119
-19.96
-20.672
-21.27
-21.769
-22.183
-22.526
-22.811
-23.052
-23.262
-23.453
-23.637
-23.825
-24.026
-24.25
-24.507
-24.804
-25.148
-25.545
-26.003
-26.524
-27.114
-27.775
-28.51
-29.32
-30.205
-31.165
-32.2
-33.307
-34.484
-35.729
-37.039
-38.409
-39.836
-41.316
-42.844
-44.414
-46.022
-47.663
-49.331
-51.021
-52.728
-54.446
-56.172
-57.9
-59.625
-61.345
-63.053
-64.748
-66.424
-68.078
-69.707
-71.309
-72.88
-74.419
-75.923
-77.392
-78.825
-80.222
-81.583
-82.908
-84.198
-85.453
-86.676
-87.866
-89.025
-90.153
-91.253
-92.326
-93.372
-94.393
-95.391
-96.365
-97.317
-98.247
-99.155
-100.042
-100.908
-101.753
-102.576
-103.378
-104.159
-104.918
-105.656
-106.372
-107.067
-107.741
-108.392
-109.019
-109.623
-110.2
-110.751
-111.274
-111.768
-112.231
-112.664
-113.065
-113.434
-113.772
-114.079
-114.355
-114.602
-114.819
-115.01
-115.176
-115.319
-115.444
-115.552
-115.649
-115.736
-115.819
-115.9
-115.984
-116.073
-116.169
-116.275
-116.395
-116.529
-116.679
-116.848
-117.038
-117.249
-117.484
-117.744
-118.027
-118.335
-118.667
-119.02
-119.394
-119.784
-120.186
-120.596
-121.009
-121.42
-121.822
-122.207
-122.568
-122.896
-123.181
-123.414
-123.584
-123.681
-123.694
-123.613
-123.428
-123.132
-122.716
-122.17
-121.489
-120.667
-119.697
-118.575
-117.298
-115.862
-114.265
-112.507
-110.589
-108.514
-106.285
-103.908
-101.392
-98.749
-95.991
-93.134
-90.192
-87.183
-84.124
-81.036
-77.938
-74.847
-71.781
-68.759
-65.802
-62.937
-60.187
-57.577
-55.127
-52.861
-50.799
-48.963
-47.368
-46.02
-44.927
-44.102
-43.562
-43.341
-43.461
-43.932
-44.761
-45.95
-47.487
-49.355
-51.52
-53.919
-56.498
-59.209
-62.017
-64.903
-67.836
-70.765
-73.631
-76.361
-78.897
-81.21
-83.256
-85.008
-86.492
-87.761
-88.911
-90.096
-91.409
-92.927
-94.763
-96.987
-99.701
-103.043
-107.079
-111.918
-117.755
-124.59
-132.317
-140.686
-149.074
-156.852
-163.575
-168.557
-171.095
-171.056
-168.545
-164.202
-159.536
-155.681
-153.279
-153.26
-156.256
-161.828
-168.984
-175.575
-177.987
-173.254
-158.903
-132.039
-90.436
-33.175
39.563
125.647
220.759
320.29
419.044
510.787
589.07
647.616
681.118
685.826
662.007
613.419
543.847
456.699
350.874
222.604
76.045
-75.195
-207.824
-297.171
-333.935
-325.676
-292.624
-256.212
-226.639
-203.923
-182.469
-158.609
-133.306
-109.944
-92.681
-83.216
-81.105
-84.779
-91.269
-97.629
-102.384
-104.99
-105.38
-103.703
-99.683
-93.307
-85.534
-77.871
-71.368
-66.445
-63.104
-61.125
-60.579
-61.56
-63.746
-66.523
-69.306
-71.674
-73.467
-74.707
-75.339
-75.273
-74.476
-72.961
-70.802
-68.096
-64.89
-61.189
-57.007
-52.362
-47.31
-41.934
-36.319
-30.55
-24.683
-18.748
-12.773
-6.774
-0.768
5.23
11.225
17.24
23.285
29.363
35.469
41.591
47.732
53.904
60.115
66.369
72.662
78.985
85.33
91.691
98.054
104.406
110.725
116.989
123.179
129.28
135.275
141.148
146.882
152.458
157.86
163.072
168.078
172.86
177.401
181.683
185.688
189.403
192.811
195.898
198.65
201.055
203.1
204.776
206.074
206.985
207.503
207.623
207.34
206.653
205.562
204.065
202.167
199.872
197.185
194.114
190.669
186.861
182.701
178.203
173.383
168.257
162.841
157.155
151.217
145.048
138.669
132.104
125.375
118.507
111.524
104.451
97.312
90.134
82.941
75.757
68.607
61.514
54.502
47.593
40.809
34.172
27.701
21.416
15.335
9.475
3.851
-1.522
-6.632
-11.467
-16.019
-20.278
-24.238
-27.893
-31.24
-34.276
-36.998
-39.409
-41.509
-43.302
-44.793
-45.988
-46.895
-47.523
-47.882
-47.984
-47.841
-47.466
-46.872
-46.075
-45.089
-43.93
-42.615
-41.16
-39.583
-37.901
-36.131
-34.292
-32.399
-30.472
-28.525
-26.576
-24.64
-22.732
-20.867
-19.059
-17.322
-15.669
-14.111
-12.66
-11.325
-10.117
-9.043
-8.109
-7.322
-6.686
-6.204
-5.88
-5.715
-5.71
-5.864
-6.177
-6.647
-7.272
-8.047
-8.967
-10.029
-11.225
-12.55
-13.995
-15.554
-17.218
-18.981
-20.833
-22.766
-24.771
-26.84
-28.963
-31.132
-33.338
-35.572
-37.824
-40.087
-42.352
-44.612
-46.858
-49.085
-51.285
-53.452
-55.581
-57.666
-59.702
-61.685
-63.609
-65.473
-67.272
-69.005
-70.669
-72.264
-73.788
-75.241
-76.622
-77.934
-79.175
-80.347
-81.451
-82.489
-83.461
-84.372
-85.221
-86.013
-86.749
-87.434
-88.069
-88.659
-89.206
-89.713
-90.183
-90.62
-91.026
-91.405
-91.759
-92.093
-92.407
-92.706
-92.992
-93.267
-93.533
-93.793
-94.046
-94.295
-94.54
-94.781
-95.019
-95.253
-95.484
-95.711
-95.934
-96.151
-96.36
-96.562
-96.753
-96.931
-97.095
-97.24
-97.364
-97.465
-97.538
-97.582
-97.591
-97.562
-97.492
-97.375
-97.208
-96.985
-96.702
-96.353
-95.934
-95.439
-94.865
-94.208
-93.463
-92.627
-91.696
-90.667
-89.538
-88.305
-86.966
-85.519
-83.962
-82.295
-80.518
-78.63
-76.634
-74.529
-72.319
-70.007
-67.597
-65.093
-62.498
-59.82
-57.065
-54.24
-51.356
-48.423
-45.45
-42.454
-39.449
-36.45
-33.473
-30.534
-27.651
-24.839
-22.114
-19.491
-16.983
-14.604
-12.369
-10.293
-8.394
-6.685
-5.182
-3.901
-2.854
-2.056
-1.517
-1.237
-1.218
-1.467
-1.988
-2.799
-3.912
-5.326
-7.039
-9.047
-11.334
-13.882
-16.649
-19.571
-22.585
-25.635
-28.671
-31.665
-34.582
-37.37
-39.981
-42.35
-44.425
-46.191
-47.631
-48.717
-49.451
-49.873
-50.082
-50.245
-50.523
-51.026
-51.839
-53.03
-54.693
-56.952
-59.918
-63.693
-68.31
-73.789
-80.233
-87.626
-95.782
-104.336
-112.579
-119.744
-125.299
-128.635
-129.055
-126.381
-120.69
-112.451
-103.081
-93.734
-85.054
-78.15
-73.914
-72.094
-72.041
-72.062
-68.669
-59.127
-41.387
-12.167
31.426
90.79
166.594
255.558
350.027
443.715
532.173
614.712
693.434
766.632
826.253
854.649
834.399
754.66
613.567
430.577
231.89
45.15
-99.598
-192.779
-236.609
-241.581
-231.104
-218.138
-207.126
-198.836
-185.772
-166.25
-144.425
-123.907
-109.564
-103.041
-102.366
-105.427
-109.895
-113.632
-115.196
-113.9
-109.757
-103.3
-95.41
-86.922
-78.501
-70.862
-64.678
-60.251
-57.597
-56.528
-56.673
-57.729
-59.489
-61.715
-64.168
-66.638
-68.897
-70.749
-72.091
-72.843
-72.943
-72.368
-71.089
-69.098
-66.442
-63.187
-59.396
-55.129
-50.425
-45.321
-39.872
-34.148
-28.226
-22.189
-16.091
-9.967
-3.843
2.265
8.346
14.397
20.437
26.491
32.579
38.709
44.885
51.105
57.373
63.695
70.075
76.515
83.012
89.559
96.148
102.771
109.414
116.058
122.683
129.263
135.778
142.204
148.52
154.706
160.738
166.594
172.253
177.693
182.894
187.832
192.487
196.835
200.858
204.535
207.849
210.783
213.321
215.449
217.155
218.43
219.264
219.652
219.588
219.07
218.099
216.676
214.804
212.49
209.742
206.571
202.989
199.013
194.659
189.946
184.895
179.53
173.874
167.952
161.79
155.416
148.856
142.138
135.292
128.347
121.33
114.27
107.197
100.136
93.116
86.161
79.297
72.547
65.934
59.478
53.199
47.116
41.245
35.602
30.2
25.052
20.166
15.552
11.216
7.162
3.392
-0.093
-3.294
-6.213
-8.855
-11.225
-13.33
-15.179
-16.779
-18.142
-19.279
-20.201
-20.922
-21.454
-21.811
-22.007
-22.057
-21.975
-21.775
-21.472
-21.081
-20.615
-20.089
-19.517
-18.913
-18.291
-17.663
-17.042
-16.441
-15.87
-15.34
-14.861
-14.442
-14.092
-13.817
-13.624
-13.518
-13.506
-13.59
-13.774
-14.06
-14.449
-14.943
-15.54
-16.241
-17.044
-17.946
-18.944
-20.036
-21.217
-22.483
-23.83
-25.252
-26.743
-28.298
-29.91
-31.573
-33.279
-35.022
-36.794
-38.589
-40.398
-42.214
-44.031
-45.841
-47.638
-49.414
-51.163
-52.879
-54.555
-56.186
-57.767
-59.293
-60.758
-62.16
-63.493
-64.755
-65.944
-67.055
-68.087
-69.039
-69.908
-70.692
-71.392
-72.006
-72.534
-72.975
-73.329
-73.596
-73.777
-73.871
-73.88
-73.803
-73.642
-73.397
-73.069
-72.659
-72.168
-71.597
-70.948
-70.221
-69.418
-68.541
-67.592
-66.573
-65.485
-64.331
-63.112
-61.831
-60.491
-59.095
-57.644
-56.142
-54.593
-52.999
-51.366
-49.696
-47.994
-46.265
-44.513
-42.744
-40.963
-39.176
-37.389
-35.607
-33.838
-32.086
-30.36
-28.665
-27.007
-25.392
-23.827
-22.317
-20.867
-19.483
-18.168
-16.925
-15.758
-14.67
-13.661
-12.735
-11.889
-11.125
-10.44
-9.833
-9.302
-8.841
-8.448
-8.115
-7.836
-7.606
-7.414
-7.253
-7.111
-6.979
-6.846
-6.701
-6.532
-6.327
-6.073
-5.759
-5.371
-4.898
-4.328
-3.65
-2.853
-1.927
-0.864
0.344
1.704
3.222
4.902
6.746
8.757
10.933
13.273
15.775
18.433
21.241
24.19
27.268
30.464
33.764
37.151
40.606
44.107
47.633
51.161
54.667
58.127
61.516
64.807
67.979
71.009
73.874
76.55
79.012
81.238
83.204
84.89
86.275
87.339
88.063
88.433
88.447
88.097
87.378
86.282
84.791
82.897
80.607
77.927
74.867
71.448
67.694
63.653
59.398
54.993
50.5
45.97
41.433
36.937
32.541
28.299
24.284
20.544
17.094
13.968
11.195
8.765
6.644
4.73
2.858
0.901
-1.24
-3.638
-6.343
-9.45
-13.067
-17.275
-22.16
-27.729
-33.988
-41.053
-48.899
-57.313
-65.917
-74.023
-80.91
-86.115
-89.051
-89.004
-85.759
-79.359
-70.317
-59.986
-49.434
-39.327
-30.796
-24.832
-21.459
-20.183
-19.344
-15.853
-7.34
8.463
35.087
75.609
131.848
202.659
282.785
366.359
449.96
535.399
625.798
717.142
796.578
842.965
837.158
773.425
661.251
518.34
358.468
192.042
24.912
-133.212
-259.823
-339.971
-369.388
-356.222
-325.689
-295.148
-270.191
-250.326
-227.094
-197.489
-164.721
-132.35
-105.091
-85.343
-73.007
-67.315
-66.731
-69.784
-75.591
-83.47
-92.564
-101.461
-108.691
-113.527
-115.86
-116.012
-114.443
-111.403
-107.336
-103.2
-99.859
-97.727
-96.921
-97.172
-98.063
-99.376
-100.835
-101.983
-102.517
-102.276
-101.177
-99.333
-96.889
-93.901
-90.455
-86.648
-82.52
-78.13
-73.53
-68.744
-63.835
-58.854
-53.829
-48.792
-43.757
-38.722
-33.691
-28.654
-23.579
-18.452
-13.262
-8.006
-2.693
2.677
8.11
13.612
19.191
24.848
30.583
36.397
42.288
48.249
54.268
60.327
66.404
72.482
78.544
84.571
90.547
96.452
102.265
107.966
113.534
118.947
124.179
129.206
134.001
138.54
142.797
146.751
150.377
153.654
156.562
159.081
161.195
162.888
164.145
164.953
165.301
165.18
164.584
163.508
161.947
159.902
157.374
154.367
150.887
146.944
142.547
137.711
132.45
126.782
120.726
114.303
107.535
100.446
93.063
85.413
77.525
69.428
61.153
52.729
44.19
35.566
26.887
18.185
9.49
0.831
-7.763
-16.262
-24.641
-32.871
-40.928
-48.786
-56.421
-63.813
-70.939
-77.781
-84.32
-90.542
-96.432
-101.977
-107.165
-111.989
-116.439
-120.51
-124.197
-127.498
-130.412
-132.94
-135.083
-136.847
-138.235
-139.255
-139.915
-140.224
-140.191
-139.827
-139.145
-138.156
-136.875
-135.317
-133.495
-131.428
-129.132
-126.624
-123.923
-121.047
-118.016
-114.849
-111.565
-108.185
-104.726
-101.21
-97.655
-94.08
-90.504
-86.945
-83.421
-79.948
-76.542
-73.218
-69.991
-66.874
-63.879
-61.018
-58.302
-55.74
-53.342
-51.115
-49.067
-47.203
-45.528
-44.046
-42.76
-41.669
-40.775
-40.075
-39.568
-39.25
-39.117
-39.162
-39.38
-39.762
-40.3
-40.986
-41.81
-42.762
-43.83
-45.006
-46.277
-47.633
-49.063
-50.558
-52.105
-53.695
-55.318
-56.963
-58.619
-60.278
-61.929
-63.563
-65.171
-66.743
-68.273
-69.752
-71.174
-72.531
-73.818
-75.03
-76.162
-77.209
-78.17
-79.04
-79.819
-80.504
-81.096
-81.593
-81.997
-82.307
-82.523
-82.648
-82.681
-82.623
-82.475
-82.239
-81.915
-81.504
-81.008
-80.429
-79.769
-79.029
-78.213
-77.322
-76.359
-75.328
-74.231
-73.072
-71.854
-70.58
-69.254
-67.881
-66.463
-65.005
-63.51
-61.982
-60.424
-58.842
-57.237
-55.613
-53.975
-52.327
-50.673
-49.018
-47.368
-45.727
-44.101
-42.495
-40.915
-39.367
-37.855
-36.385
-34.962
-33.59
-32.274
-31.018
-29.825
-28.7
-27.644
-26.66
-25.75
-24.914
-24.153
-23.466
-22.854
-22.315
-21.848
-21.453
-21.126
-20.865
-20.668
-20.532
-20.451
-20.422
-20.437
-20.49
-20.573
-20.681
-20.803
-20.933
-21.062
-21.181
-21.281
-21.355
-21.394
-21.389
-21.331
-21.213
-21.027
-20.766
-20.424
-19.995
-19.475
-18.858
-18.143
-17.328
-16.413
-15.394
-14.273
-13.05
-11.726
-10.305
-8.79
-7.185
-5.498
-3.737
-1.916
-0.049
1.851
3.769
5.69
7.597
9.472
11.301
13.072
14.774
16.394
17.914
19.316
20.585
21.706
22.668
23.456
24.056
24.454
24.644
24.629
24.407
23.97
23.304
22.382
21.191
19.729
17.993
15.99
13.729
11.225
8.516
5.661
2.717
-0.265
-3.249
-6.21
-9.103
-11.869
-14.445
-16.762
-18.783
-20.486
-21.845
-22.862
-23.564
-24.012
-24.311
-24.584
-24.948
-25.525
-26.446
-27.844
-29.868
-32.634
-36.285
-41
-46.819
-53.667
-61.332
-69.356
-77.253
-84.64
-90.991
-95.691
-98.419
-99.07
-97.985
-96.112
-94.328
-93.218
-93.373
-95.333
-99.273
-104.978
-111.259
-115.804
-116.05
-109.586
-94.221
-67.728
-27.935
26.881
97.473
181.012
271.433
363.167
450.132
531.736
613.497
693.467
766.982
820.997
829.616
780.751
669.695
499.285
297
87.045
-106.064
-250.942
-341.304
-380.134
-375.764
-353.939
-324.969
-289.601
-253.927
-213.347
-171.739
-140.721
-118.569
-106.237
-103.087
-101.972
-104.764
-112.387
-122.065
-133.712
-144.501
-151.653
-154.851
-153.845
-149.177
-142.103
-134.039
-126.368
-119.92
-115.123
-112.197
-111.089
-111.712
-113.829
-116.848
-120.097
-123.086
-125.526
-127.307
-128.44
-128.907
-128.676
-127.78
-126.304
-124.339
-121.949
-119.16
-115.967
-112.378
-108.443
-104.231
-99.829
-95.325
-90.774
-86.205
-81.64
-77.095
-72.579
-68.1
-63.649
-59.199
-54.731
-50.238
-45.717
-41.167
-36.581
-31.94
-27.224
-22.419
-17.517
-12.517
-7.42
-2.224
3.065
8.439
13.883
19.38
24.914
30.47
36.035
41.594
47.128
52.618
58.045
63.39
68.632
73.748
78.715
83.507
88.101
92.473
96.599
100.457
104.023
107.275
110.193
112.757
114.95
116.754
118.153
119.133
119.682
119.791
119.451
118.659
117.409
115.703
113.544
110.937
107.89
104.412
100.517
96.219
91.534
86.481
81.08
75.354
69.325
63.02
56.466
49.691
42.726
35.6
28.346
20.994
13.577
6.126
-1.327
-8.75
-16.114
-23.387
-30.54
-37.544
-44.373
-51.001
-57.404
-63.558
-69.444
-75.043
-80.339
-85.317
-89.966
-94.274
-98.234
-101.839
-105.084
-107.966
-110.484
-112.639
-114.432
-115.868
-116.951
-117.688
-118.088
-118.16
-117.914
-117.362
-116.518
-115.394
-114.005
-112.366
-110.492
-108.4
-106.106
-103.626
-100.977
-98.177
-95.24
-92.185
-89.026
-85.78
-82.461
-79.083
-75.66
-72.206
-68.733
-65.253
-61.778
-58.319
-54.885
-51.488
-48.136
-44.838
-41.602
-38.435
-35.345
-32.338
-29.419
-26.594
-23.866
-21.24
-18.72
-16.309
-14.008
-11.821
-9.748
-7.791
-5.951
-4.229
-2.624
-1.136
0.235
1.491
2.631
3.658
4.572
5.375
6.069
6.656
7.138
7.517
7.796
7.977
8.066
8.063
7.974
7.802
7.55
7.224
6.826
6.362
5.835
5.25
4.612
3.927
3.198
2.431
1.632
0.806
-0.043
-0.908
-1.784
-2.667
-3.551
-4.431
-5.303
-6.162
-7.003
-7.821
-8.612
-9.372
-10.098
-10.785
-11.431
-12.032
-12.585
-13.089
-13.541
-13.94
-14.282
-14.568
-14.795
-14.963
-15.07
-15.118
-15.106
-15.033
-14.902
-14.713
-14.467
-14.166
-13.811
-13.405
-12.95
-12.447
-11.899
-11.308
-10.677
-10.007
-9.302
-8.563
-7.792
-6.991
-6.162
-5.306
-4.426
-3.52
-2.591
-1.639
-0.665
0.333
1.352
2.395
3.461
4.551
5.666
6.807
7.975
9.172
10.401
11.662
12.96
14.295
15.672
17.092
18.56
20.078
21.65
23.279
24.968
26.721
28.541
30.43
32.391
34.427
36.539
38.729
40.998
43.346
45.772
48.277
50.859
53.516
56.245
59.045
61.911
64.84
67.828
70.868
73.956
77.086
80.251
83.444
86.658
89.885
93.116
96.342
99.553
102.74
105.893
108.999
112.048
115.028
117.927
120.734
123.437
126.025
128.486
130.81
132.985
135.003
136.854
138.529
140.021
141.323
142.429
143.333
144.031
144.521
144.798
144.861
144.709
144.342
143.76
142.963
141.955
140.737
139.313
137.689
135.869
133.86
131.671
129.312
126.792
124.123
121.318
118.388
115.347
112.209
108.989
105.7
102.357
98.974
95.565
92.144
88.724
85.319
81.94
78.597
75.303
72.065
68.894
65.796
62.778
