Name,Kevin Dejbod
Date of Birth,"27 Sep 1999"
Recorded Date,2023-07-04 21:57:38 +0800
Classification,Sinus Rhythm
Symptoms,
Software Version,1.90
Device,"Watch5,1"
Sample Rate,513.625 hertz


Lead,Lead I
Unit,µV

-65.732
-59.085
-52.826
-47.484
-42.863
-38.441
-33.489
-27.848
-21.712
-15.285
-8.786
-2.195
4.551
11.362
18.178
24.967
31.68
38.316
44.789
50.905
56.566
61.752
66.455
70.701
74.479
77.758
80.572
82.994
85.071
86.818
88.216
89.224
89.82
89.983
89.68
88.857
87.451
85.419
82.743
79.428
75.512
71.032
66.033
60.573
54.704
48.484
41.982
35.264
28.393
21.448
14.51
7.671
1.054
-5.23
-11.085
-16.43
-21.213
-25.391
-28.923
-31.781
-33.944
-35.403
-36.167
-36.256
-35.685
-34.484
-32.686
-30.338
-27.522
-24.312
-20.769
-16.939
-12.845
-8.513
-3.982
0.705
5.517
10.433
15.441
20.53
25.675
30.853
36.039
41.214
46.382
51.527
56.611
61.573
66.32
70.752
74.78
78.32
81.282
83.591
85.16
85.9
85.764
84.737
82.843
80.111
76.507
71.952
66.389
59.84
52.358
43.955
34.562
24.09
12.596
0.326
-12.382
-25.287
-38.201
-50.891
-63.02
-74.166
-84.05
-92.686
-100.277
-106.971
-112.868
-118.065
-122.733
-127.165
-131.57
-135.924
-140.048
-143.776
-147.022
-149.774
-152.034
-153.751
-154.909
-155.58
-155.914
-156.073
-156.145
-156.15
-156.059
-155.833
-155.447
-154.89
-154.146
-153.206
-152.078
-150.779
-149.343
-147.815
-146.214
-144.547
-142.807
-140.965
-139.019
-136.989
-134.911
-132.845
-130.842
-128.921
-127.098
-125.376
-123.738
-122.17
-120.638
-119.091
-117.49
-115.814
-114.052
-112.214
-110.301
-108.302
-106.197
-103.949
-101.528
-98.927
-96.142
-93.189
-90.091
-86.868
-83.547
-80.166
-76.754
-73.326
-69.891
-66.433
-62.923
-59.34
-55.666
-51.894
-48.016
-44.017
-39.87
-35.533
-30.968
-26.143
-21.033
-15.606
-9.832
-3.685
2.858
9.788
17.077
24.693
32.601
40.767
49.158
57.729
66.424
75.175
83.917
92.588
101.123
109.452
117.491
125.147
132.319
138.931
144.918
150.229
154.826
158.677
161.763
164.083
165.643
166.464
166.57
165.989
164.762
162.943
160.595
157.8
154.658
151.265
147.723
144.125
140.537
137.011
133.585
130.289
127.122
124.052
121.004
117.859
114.5
110.842
106.834
102.416
97.597
92.476
87.229
82.167
77.651
73.95
71.226
69.589
68.977
69.14
69.744
70.229
69.899
68.158
64.557
58.797
50.861
41.033
29.761
17.818
6.341
-3.366
-9.949
-12.081
-8.545
1.654
19.279
44.86
78.02
117.258
160.774
206.379
252.485
299.283
346.297
391.192
429.694
454.122
457.661
438.709
399.378
346.206
286.263
221.477
152.672
81.079
9.593
-53.516
-100.295
-127.158
-133.969
-125.942
-110.152
-91.486
-74.36
-60.99
-51.131
-44.327
-38.512
-31.851
-24.467
-17.174
-11.751
-9.575
-10.457
-13.524
-17.666
-22.058
-26.354
-30.369
-33.88
-36.581
-38.376
-39.38
-39.721
-39.588
-39.159
-38.563
-38.031
-37.827
-38.037
-38.628
-39.511
-40.539
-41.607
-42.653
-43.572
-44.244
-44.607
-44.643
-44.371
-43.845
-43.096
-42.141
-41
-39.7
-38.263
-36.716
-35.077
-33.358
-31.567
-29.71
-27.791
-25.814
-23.776
-21.673
-19.493
-17.226
-14.86
-12.387
-9.802
-7.097
-4.264
-1.295
1.818
5.083
8.502
12.079
15.816
19.716
23.781
28.014
32.413
36.973
41.687
46.545
51.533
56.634
61.828
67.094
72.412
77.767
83.148
88.549
93.963
99.384
104.801
110.197
115.555
120.86
126.098
131.261
136.347
141.357
146.301
151.191
156.03
160.813
165.52
170.12
174.572
178.83
182.857
186.625
190.109
193.289
196.144
198.653
200.79
202.525
203.821
204.636
204.938
204.712
203.959
202.705
200.986
198.857
196.366
193.553
190.456
187.106
183.535
179.772
175.853
171.811
167.694
163.555
159.442
155.396
151.443
147.595
143.849
140.193
136.618
133.117
129.689
126.337
123.07
119.895
116.824
113.866
111.024
108.296
105.679
103.17
100.771
98.492
96.344
94.346
92.511
90.854
89.384
88.106
87.022
86.131
85.427
84.905
84.557
84.38
84.37
84.522
84.831
85.29
85.89
86.621
87.472
88.433
89.493
90.64
91.865
93.158
94.512
95.918
97.368
98.853
100.364
101.892
103.427
104.959
106.479
107.975
109.44
110.862
112.235
113.548
114.794
115.965
117.052
118.048
118.947
119.74
120.422
120.987
121.429
121.743
121.924
121.968
121.872
121.633
121.248
120.717
120.037
119.208
118.23
117.103
115.829
114.409
112.846
111.143
109.304
107.333
105.235
103.016
100.683
98.242
95.701
93.067
90.348
87.553
84.691
81.771
78.802
75.795
72.758
69.701
66.635
63.569
60.511
57.472
54.46
51.484
48.551
45.67
42.847
40.09
37.405
34.796
32.27
29.83
27.481
25.225
23.065
21.002
19.038
17.173
15.407
13.739
12.167
10.689
9.302
8.002
6.785
5.647
4.582
3.584
2.648
1.766
0.933
0.142
-0.615
-1.344
-2.051
-2.744
-3.429
-4.112
-4.8
-5.498
-6.211
-6.945
-7.704
-8.493
-9.315
-10.174
-11.073
-12.015
-13
-14.032
-15.111
-16.237
-17.409
-18.628
-19.892
-21.198
-22.546
-23.93
-25.349
-26.797
-28.271
-29.767
-31.279
-32.8
-34.325
-35.848
-37.364
-38.868
-40.354
-41.816
-43.252
-44.659
-46.036
-47.382
-48.692
-49.952
-51.162
-52.322
-53.413
-54.427
-55.36
-56.196
-56.941
-57.629
-58.26
-58.824
-59.389
-60.016
-60.651
-61.313
-62.041
-62.651
-63.467
-64.895
-66.418
-67.876
-68.447
-66.649
-63.425
-60.097
-58.072
-59.952
-65.255
-71.533
-77.133
-79.445
-77.948
-75.098
-72.312
-71.042
-72.246
-74.481
-76.868
-79.124
-80.68
-81.966
-83.342
-84.657
-85.975
-87.261
-88.411
-89.48
-90.503
-91.45
-92.314
-93.097
-93.78
-94.357
-94.817
-95.142
-95.359
-95.524
-95.723
-96.077
-96.683
-97.604
-98.921
-100.676
-102.838
-105.329
-107.937
-110.349
-112.3
-113.502
-113.675
-112.691
-110.514
-107.227
-103.179
-98.832
-94.652
-91.332
-89.505
-89.509
-91.661
-96.05
-102.274
-109.907
-118.001
-124.581
-128.304
-128.365
-124.2
-116.485
-104.324
-84.853
-55.97
-16.099
33.206
86.835
140.811
192.725
242.17
290.136
333.766
366.638
381.264
370.884
334.933
277.903
206.041
127.233
46.663
-31.201
-100.403
-156.8
-195.767
-215.363
-218.267
-207.636
-189.381
-169.262
-150.13
-134.73
-122.64
-111.557
-100.795
-89.519
-78.626
-70.574
-66.099
-65.258
-67.372
-70.775
-74.501
-77.962
-80.524
-81.846
-81.782
-80.327
-77.69
-74.19
-70.111
-65.768
-61.551
-57.842
-54.843
-52.578
-50.96
-49.822
-49.016
-48.412
-47.856
-47.191
-46.336
-45.289
-44.099
-42.832
-41.526
-40.185
-38.793
-37.354
-35.873
-34.352
-32.797
-31.21
-29.595
-27.971
-26.357
-24.758
-23.167
-21.56
-19.89
-18.129
-16.261
-14.28
-12.203
-10.04
-7.789
-5.453
-3.032
-0.522
2.074
4.768
7.579
10.52
13.599
16.814
20.145
23.583
27.126
30.77
34.519
38.366
42.294
46.291
50.356
54.484
58.676
62.927
67.219
71.543
75.891
80.257
84.64
89.032
93.419
97.795
102.157
106.517
110.898
115.306
119.729
124.151
128.545
132.878
137.124
141.238
145.164
148.858
152.278
155.392
158.181
160.609
162.625
164.183
165.225
165.693
165.558
164.797
163.4
161.389
158.803
155.676
152.053
148.04
143.745
139.171
134.347
129.324
124.021
118.84
114.184
109.619
105.035
99.576
92.206
84.127
76.141
69.415
65.539
63.073
60.807
57.918
53.049
47.189
41.33
35.697
30.899
26.588
22.32
18.187
14.132
10.192
6.472
2.929
-0.459
-3.66
-6.659
-9.455
-12.045
-14.427
-16.596
-18.55
-20.286
-21.816
-23.151
-24.297
-25.258
-26.044
-26.663
-27.129
-27.456
-27.658
-27.743
-27.725
-27.615
-27.422
-27.157
-26.828
-26.444
-26.01
-25.536
-25.029
-24.498
-23.951
-23.393
-22.833
-22.276
-21.729
-21.196
-20.681
-20.187
-19.717
-19.273
-18.857
-18.47
-18.112
-17.784
-17.485
-17.215
-16.974
-16.759
-16.57
-16.406
-16.264
-16.143
-16.04
-15.955
-15.885
-15.829
-15.784
-15.749
-15.724
-15.705
-15.692
-15.684
-15.678
-15.674
-15.67
-15.665
-15.658
-15.649
-15.637
-15.621
-15.602
-15.58
-15.555
-15.527
-15.497
-15.465
-15.431
-15.396
-15.361
-15.326
-15.291
-15.257
-15.224
-15.192
-15.162
-15.134
-15.107
-15.082
-15.057
-15.033
-15.008
-14.983
-14.957
-14.929
-14.899
-14.866
-14.83
-14.789
-14.743
-14.691
-14.633
-14.567
-14.494
-14.411
-14.318
-14.215
-14.1
-13.973
-13.834
-13.682
-13.516
-13.336
-13.143
-12.935
-12.714
-12.48
-12.233
-11.973
-11.702
-11.421
-11.132
-10.834
-10.531
-10.223
-9.912
-9.6
-9.287
-8.977
-8.67
-8.367
-8.071
-7.783
-7.504
-7.236
-6.98
-6.737
-6.509
-6.297
-6.102
-5.925
-5.767
-5.629
-5.511
-5.415
-5.34
-5.287
-5.255
-5.246
-5.257
-5.289
-5.34
-5.409
-5.495
-5.596
-5.709
-5.833
-5.966
-6.105
-6.247
-6.39
-6.532
-6.67
-6.801
-6.923
-7.033
-7.129
-7.207
-7.266
-7.301
-7.311
-7.293
-7.245
-7.163
-7.045
-6.889
-6.693
-6.454
-6.171
-5.842
-5.465
-5.039
-4.563
-4.037
-3.461
-2.836
-2.162
-1.44
-0.673
0.137
0.987
1.874
2.795
3.747
4.724
5.724
6.74
7.768
8.803
9.838
10.866
11.879
12.87
13.831
14.753
15.628
16.447
17.202
17.886
18.492
19.012
19.44
19.768
19.988
20.094
20.08
19.942
19.673
19.272
18.734
18.064
17.261
16.328
15.265
14.066
12.727
11.249
9.634
7.884
6.004
4.003
1.893
-0.302
-2.561
-4.859
-7.175
-9.494
-11.798
-14.064
-16.264
-18.365
-20.336
-22.153
-23.797
-25.25
-26.506
-27.568
-28.46
-29.22
-29.894
-30.529
-31.176
-31.892
-32.737
-33.763
-35.031
-36.623
-38.601
-41.001
-43.801
-46.87
-50.047
-53.181
-56.071
-58.469
-60.169
-60.998
-60.959
-60.39
-59.678
-59.152
-59.222
-60.269
-62.553
-66.295
-70.942
-74.921
-76.805
-75.571
-71.252
-64.696
-55.504
-41.337
-18.529
15.573
60.917
114.178
170.155
225.784
279.22
328.343
370.128
397.317
402.733
384.401
344.51
290.519
230.573
167.017
99.861
29.166
-43.365
-110.055
-161.563
-192.933
-202.471
-193.328
-173.04
-147.083
-120.918
-100.273
-86.274
-79.108
-76.887
-74.473
-69.858
-62.91
-54.622
-48.147
-44.63
-43.513
-44.125
-44.996
-45.32
-45.062
-43.999
-42.16
-39.755
-36.912
-33.843
-30.829
-28.047
-25.689
-24.032
-23.181
-23.091
-23.652
-24.651
-25.886
-27.232
-28.557
-29.713
-30.612
-31.196
-31.434
-31.335
-30.907
-30.153
-29.087
-27.73
-26.107
-24.259
-22.237
-20.105
-17.922
-15.728
-13.549
-11.398
-9.287
-7.226
-5.221
-3.272
-1.375
0.476
2.281
4.042
5.765
7.463
9.161
10.887
12.666
14.515
16.447
18.47
20.59
22.812
25.138
27.562
30.079
32.688
35.386
38.174
41.047
43.999
47.022
50.104
53.235
56.404
59.599
62.807
66.014
69.208
72.376
75.505
78.584
81.596
84.527
87.362
90.085
92.68
95.132
97.423
99.541
101.468
103.193
104.701
105.98
107.02
107.81
108.341
108.604
108.593
108.302
107.728
106.865
105.715
104.275
102.547
100.535
98.242
95.674
92.838
89.744
86.401
82.819
79.011
74.99
70.77
66.365
61.792
57.068
52.208
47.232
42.157
37.004
31.789
26.533
21.254
15.972
10.704
5.47
0.286
-4.829
-9.859
-14.787
-19.598
-24.278
-28.812
-33.187
-37.392
-41.415
-45.248
-48.882
-52.308
-55.521
-58.516
-61.288
-63.835
-66.155
-68.246
-70.109
-71.746
-73.158
-74.35
-75.325
-76.089
-76.648
-77.01
-77.182
-77.173
-76.992
-76.649
-76.154
-75.518
-74.752
-73.866
-72.873
-71.784
-70.611
-69.366
-68.06
-66.704
-65.31
-63.889
-62.45
-61.005
-59.562
-58.131
-56.721
-55.34
-53.995
-52.693
-51.442
-50.245
-49.109
-48.038
-47.034
-46.101
-45.24
-44.452
-43.737
-43.096
-42.526
-42.026
-41.594
-41.226
-40.919
-40.668
-40.469
-40.317
-40.206
-40.131
-40.085
-40.062
-40.055
-40.06
-40.068
-40.074
-40.071
-40.053
-40.015
-39.949
-39.85
-39.713
-39.533
-39.305
-39.026
-38.69
-38.297
-37.842
-37.325
-36.743
-36.098
-35.388
-34.614
-33.777
-32.88
-31.925
-30.915
-29.853
-28.743
-27.59
-26.399
-25.174
-23.921
-22.645
-21.352
-20.048
-18.738
-17.429
-16.126
-14.836
-13.564
-12.316
-11.097
-9.913
-8.768
-7.668
-6.615
-5.614
-4.669
-3.781
-2.952
-2.184
-1.478
-0.834
-0.251
0.271
0.734
1.141
1.494
1.796
2.051
2.264
2.44
2.582
2.695
2.784
2.852
2.906
2.951
2.994
3.036
3.083
3.148
3.24
3.369
3.541
3.75
3.998
4.299
4.648
5.027
5.42
5.809
6.195
6.607
7.051
7.496
7.975
8.594
9.372
10.274
11.312
12.358
13.643
15.842
18.773
21.821
23.926
23.143
19.663
15.406
12.314
13.143
17.957
24.162
29.757
32.552
32.244
30.771
29.295
28.637
29.008
29.61
30.098
30.494
30.769
31.044
31.345
31.563
31.67
31.685
31.606
31.431
31.167
30.82
30.406
29.946
29.449
28.911
28.336
27.728
27.092
26.435
25.76
25.068
24.365
23.656
22.944
22.233
21.528
20.83
20.142
19.467
18.807
18.162
17.534
16.923
16.328
15.749
15.184
14.63
14.081
13.534
12.983
12.421
11.842
11.237
10.6
9.926
9.21
8.448
7.633
6.761
5.827
4.826
3.752
2.604
1.379
0.075
-1.303
-2.749
-4.259
-5.826
-7.451
-9.137
-10.889
-12.708
-14.598
-16.56
-18.592
-20.689
-22.838
-25.021
-27.222
-29.434
-31.653
-33.873
-36.086
-38.273
-40.406
-42.458
-44.388
-46.148
-47.721
-49.111
-50.364
-51.57
-52.809
-54.141
-55.652
-57.405
-59.371
-61.434
-63.371
-64.899
-65.862
-66.198
-65.819
-64.678
-62.859
-60.601
-58.337
-56.537
-55.44
-55.122
-55.715
-57.408
-60.304
-64.307
-69.136
-74.503
-80.31
-86.662
-93.049
-98.15
-100.875
-100.245
-96.702
-92.21
-86.908
-79.479
-66.557
-42.803
-6.183
42.155
98.765
157.822
215.387
268.944
314.828
348.741
364.943
358.526
329.839
283.22
225.432
162.765
96.11
24.505
-51.177
-127.305
-194.325
-241.944
-265.68
-265.749
-247.463
-218.871
-185.144
-150.104
-118.273
-92.944
-76.576
-70.036
-70.066
-71.942
-72.766
-71.274
-68.631
-67.324
-68.025
-70.051
-72.159
-72.741
-71.309
-68.284
-64.154
-59.496
-54.751
-50.241
-46.358
-43.5
-41.845
-41.359
-41.913
-43.31
-45.347
-47.838
-50.576
-53.329
-55.925
-58.267
-60.282
-61.946
-63.253
-64.179
-64.722
-64.893
-64.698
-64.153
-63.286
-62.121
-60.686
-59.024
-57.17
-55.168
-53.07
-50.917
-48.745
-46.58
-44.429
-42.296
-40.188
-38.101
-36.026
-33.949
-31.849
-29.707
-27.509
-25.236
-22.87
-20.39
-17.768
-14.982
-12.018
-8.863
-5.515
-1.975
1.757
5.671
9.752
13.984
18.342
22.809
27.369
32.005
36.706
41.452
46.226
51.012
55.79
60.547
65.279
69.981
74.65
79.296
83.928
88.559
93.214
97.902
102.629
107.393
112.18
116.976
121.767
126.529
131.238
135.863
140.36
144.688
148.799
152.637
156.142
159.247
161.874
163.958
165.447
166.298
166.483
165.977
164.764
162.84
160.218
156.916
152.967
148.403
143.261
137.585
131.43
124.867
117.979
110.844
103.536
96.13
88.696
81.309
74.036
66.931
60.031
53.364
46.958
40.844
35.054
29.62
24.56
19.878
15.57
11.627
8.035
4.776
1.816
-0.89
-3.378
-5.673
-7.791
-9.738
-11.525
-13.173
-14.704
-16.144
-17.512
-18.818
-20.072
-21.285
-22.456
-23.579
-24.639
-25.601
-26.446
-27.163
-27.749
-28.206
-28.537
-28.74
-28.814
-28.759
-28.579
-28.279
-27.861
-27.329
-26.692
-25.963
-25.161
-24.313
-23.441
-22.56
-21.683
-20.818
-19.973
-19.156
-18.373
-17.626
-16.915
-16.244
-15.616
-15.034
-14.501
-14.015
-13.574
-13.175
-12.813
-12.486
-12.193
-11.93
-11.696
-11.489
-11.308
-11.154
-11.026
-10.924
-10.844
-10.786
-10.746
-10.724
-10.716
-10.72
-10.733
-10.754
-10.78
-10.811
-10.844
-10.88
-10.915
-10.951
-10.986
-11.019
-11.051
-11.082
-11.111
-11.141
-11.17
-11.201
-11.234
-11.27
-11.31
-11.356
-11.408
-11.467
-11.534
-11.61
-11.695
-11.791
-11.898
-12.017
-12.148
-12.292
-12.45
-12.622
-12.809
-13.011
-13.229
-13.462
-13.71
-13.973
-14.251
-14.543
-14.849
-15.166
-15.495
-15.834
-16.182
-16.537
-16.897
-17.261
-17.627
-17.992
-18.356
-18.716
-19.071
-19.418
-19.756
-20.083
-20.398
-20.7
-20.986
-21.256
-21.508
-21.742
-21.956
-22.151
-22.325
-22.478
-22.609
-22.718
-22.806
-22.872
-22.916
-22.94
-22.943
-22.927
-22.892
-22.84
-22.773
-22.691
-22.597
-22.493
-22.38
-22.26
-22.136
-22.01
-21.884
-21.759
-21.639
-21.525
-21.419
-21.323
-21.24
-21.17
-21.115
-21.077
-21.057
-21.056
-21.075
-21.116
-21.178
-21.262
-21.369
-21.5
-21.653
-21.829
-22.028
-22.249
-22.49
-22.752
-23.032
-23.33
-23.643
-23.971
-24.31
-24.66
-25.017
-25.38
-25.746
-26.113
-26.477
-26.836
-27.188
-27.53
-27.859
-28.172
-28.467
-28.742
-28.992
-29.217
-29.413
-29.578
-29.709
-29.804
-29.86
-29.877
-29.851
-29.781
-29.664
-29.5
-29.286
-29.021
-28.704
-28.333
-27.907
-27.426
-26.889
-26.295
-25.644
-24.936
-24.171
-23.35
-22.473
-21.539
-20.551
-19.509
-18.415
-17.27
-16.076
-14.835
-13.551
-12.225
-10.861
-9.462
-8.032
-6.574
-5.092
-3.591
-2.075
-0.549
0.98
2.508
4.027
5.529
7.008
8.456
9.864
11.227
12.534
13.778
14.951
16.047
17.059
17.98
18.802
19.518
20.122
20.61
20.978
21.222
21.34
21.326
21.183
20.909
20.509
19.982
19.326
18.537
17.616
16.565
15.386
14.087
12.672
11.148
9.533
7.843
6.1
4.324
2.535
0.749
-1.018
-2.751
-4.427
-6.025
-7.515
-8.874
-10.08
-11.127
-12.026
-12.789
-13.418
-13.946
-14.447
-15.04
-15.856
-16.973
-18.37
-20.028
-22.008
-24.336
-26.954
-29.654
-32.07
-33.962
-35.326
-36.205
-36.521
-36.194
-35.195
-33.795
-32.691
-32.414
-33.143
-34.957
-37.95
-42.255
-48.026
-54.552
-60.046
-63.041
-62.632
-59.117
-53.531
-45.377
-32.335
-10.861
21.602
64.878
115.85
169.82
223.697
275.738
324.573
367.456
398.465
411.125
400.837
367.66
315.855
250.752
177.95
101.02
23.944
-46.997
-105.92
-146.925
-168.01
-171.588
-160.986
-141.733
-118.028
-93.239
-71.986
-55.923
-45.565
-39.836
-34.988
-29.584
-23.709
-18.273
-15.707
-16.666
-20.403
-26.045
-32.016
-37.333
-41.686
-44.678
-46.244
-46.55
-45.701
-43.915
-41.527
-38.809
-36.065
-33.659
-31.766
-30.403
-29.524
-28.989
-28.641
-28.376
-28.077
-27.614
-26.943
-26.054
-24.967
-23.753
-22.476
-21.19
-19.936
-18.726
-17.544
-16.375
-15.217
-14.069
-12.946
-11.848
-10.769
-9.703
-8.648
-7.6
-6.549
-5.468
-4.315
-3.051
-1.651
-0.117
1.537
3.301
5.177
7.167
9.274
11.497
13.832
16.288
18.881
21.624
24.518
27.551
30.703
33.95
37.284
40.698
44.185
47.744
51.368
55.06
58.83
62.684
66.618
70.616
74.65
78.697
82.75
86.801
90.847
94.883
98.902
102.901
106.891
110.866
114.806
118.676
122.418
125.987
129.352
132.489
135.383
138.015
140.354
142.374
144.055
145.374
146.309
146.824
146.87
146.421
145.473
144.047
142.189
139.935
137.306
134.327
131.016
127.398
123.504
119.359
114.978
110.385
105.611
100.698
95.707
90.676
85.63
80.578
75.51
70.426
65.338
60.252
55.176
50.121
45.093
40.111
35.201
30.38
25.659
21.045
16.532
12.123
7.829
3.666
-0.346
-4.191
-7.859
-11.336
-14.61
-17.673
-20.52
-23.152
-25.576
-27.796
-29.817
-31.639
-33.265
-34.699
-35.946
-37.016
-37.915
-38.653
-39.239
-39.685
-40.001
-40.199
-40.289
-40.281
-40.181
-39.998
-39.741
-39.42
-39.041
-38.614
-38.147
-37.647
-37.124
-36.584
-36.035
-35.482
-34.932
-34.389
-33.858
-33.344
-32.849
-32.376
-31.929
-31.509
-31.118
-30.758
-30.429
-30.133
-29.868
-29.636
-29.435
-29.266
-29.126
-29.014
-28.93
-28.871
-28.837
-28.825
-28.834
-28.862
-28.908
-28.97
-29.047
-29.136
-29.235
-29.344
-29.459
-29.581
-29.706
-29.834
-29.964
-30.095
-30.225
-30.354
-30.481
-30.605
-30.726
-30.843
-30.956
-31.064
-31.167
-31.265
-31.358
-31.446
-31.528
-31.606
-31.678
-31.746
-31.809
-31.868
-31.922
-31.972
-32.018
-32.059
-32.097
-32.13
-32.159
-32.184
-32.206
-32.224
-32.238
-32.248
-32.256
-32.259
-32.259
-32.256
-32.25
-32.241
-32.228
-32.213
-32.195
-32.175
-32.153
-32.129
-32.103
-32.075
-32.046
-32.015
-31.984
-31.951
-31.918
-31.884
-31.85
-31.817
-31.784
-31.753
-31.724
-31.697
-31.672
-31.651
-31.632
-31.618
-31.608
-31.603
-31.603
-31.608
-31.619
-31.635
-31.656
-31.683
-31.715
-31.752
-31.794
-31.84
-31.89
-31.943
-31.999
-32.057
-32.117
-32.178
-32.238
-32.298
-32.356
-32.411
-32.463
-32.51
-32.551
-32.585
-32.611
-32.628
-32.634
-32.629
-32.611
-32.579
-32.533
-32.47
-32.39
-32.294
-32.179
-32.045
-31.893
-31.721
-31.531
-31.322
-31.095
-30.849
-30.587
-30.309
-30.015
-29.707
-29.387
-29.055
-28.714
-28.365
-28.01
-27.651
-27.29
-26.93
-26.573
-26.222
-25.878
-25.544
-25.224
-24.919
-24.631
-24.365
-24.121
-23.902
-23.711
-23.55
-23.42
-23.323
-23.26
-23.233
-23.243
-23.291
-23.376
-23.499
-23.66
-23.858
-24.094
-24.364
-24.669
-25.006
-25.372
-25.766
-26.185
-26.626
-27.084
-27.557
-28.04
-28.53
-29.021
-29.51
-29.991
-30.46
-30.912
-31.341
-31.742
-32.109
-32.438
-32.723
-32.96
-33.143
-33.267
-33.329
-33.323
-33.246
-33.094
-32.864
-32.551
-32.154
-31.67
-31.097
-30.436
-29.684
-28.842
-27.911
-26.893
-25.789
-24.601
-23.334
-21.989
-20.573
-19.089
-17.544
-15.943
-14.295
-12.606
-10.885
-9.143
-7.389
-5.633
-3.885
-2.157
-0.46
1.195
2.794
4.327
5.781
7.146
8.409
9.56
10.586
11.48
12.232
12.835
13.283
13.57
13.687
13.632
13.405
13.005
12.432
11.687
10.767
9.673
8.41
6.983
5.4
3.668
1.796
-0.199
-2.3
-4.486
-6.731
-9.017
-11.331
-13.66
-15.994
-18.316
-20.596
-22.811
-24.934
-26.941
-28.828
-30.589
-32.208
-33.719
-35.172
-36.643
-38.269
-40.156
-42.326
-44.803
-47.585
-50.586
-53.748
-56.941
-59.874
-62.305
-64.08
-65.069
-65.283
-64.855
-63.82
-62.315
-60.684
-59.247
-58.415
-58.605
-59.945
-62.374
-65.912
-70.446
-75.713
-81.443
-86.376
-88.537
-86.605
-79.401
-67.361
-52.782
-35.866
-15.912
9.116
43.827
89.17
143.821
205.345
267.225
324.176
370.559
399.139
406.006
388.557
348.063
290.088
219.73
142.783
63.81
-13.212
-82.186
-137.284
-173.651
-189.107
-185.466
-167.836
-142.859
-117.143
-96.691
-83.603
-77.071
-74.658
-71.918
-67.216
-61.321
-55.408
-51.9
-51.532
-53.291
-56.277
-59.233
-61.212
-61.969
-61.447
-59.766
-57.222
-54.13
-50.716
-47.207
-43.926
-41.179
-39.132
-37.839
-37.21
-37.072
-37.279
-37.692
-38.133
-38.433
-38.485
-38.233
-37.674
-36.837
-35.744
-34.41
-32.864
-31.137
-29.253
-27.233
-25.091
-22.841
-20.508
-18.124
-15.718
-13.312
-10.918
-8.54
-6.18
-3.834
-1.498
0.841
3.196
5.577
7.994
10.455
12.97
15.551
18.211
20.962
23.815
26.779
29.861
33.068
36.404
39.866
43.456
47.172
51.013
54.984
59.084
63.306
67.641
72.076
76.598
81.194
85.849
90.54
95.25
99.965
104.676
109.384
114.082
118.756
123.388
127.951
132.426
136.802
141.07
145.223
149.255
153.157
156.928
160.582
164.116
167.514
170.745
173.758
176.516
178.995
181.175
183.049
184.602
185.809
186.652
187.118
187.19
186.854
186.082
184.831
183.084
180.847
178.144
175.03
171.546
167.72
163.582
159.156
154.471
149.564
144.462
139.184
133.759
128.219
122.609
116.99
111.403
105.872
100.405
94.993
89.634
84.338
79.111
73.956
68.882
63.894
59.005
54.238
49.607
45.12
40.777
36.57
32.497
28.565
24.784
21.171
17.738
14.491
11.439
8.589
5.946
3.512
1.282
-0.754
-2.605
-4.276
-5.772
-7.098
-8.258
-9.26
-10.115
-10.831
-11.418
-11.886
-12.246
-12.509
-12.687
-12.788
-12.822
-12.794
-12.713
-12.586
-12.42
-12.221
-11.998
-11.755
-11.499
-11.237
-10.974
-10.715
-10.465
-10.226
-10.002
-9.795
-9.608
-9.442
-9.299
-9.179
-9.084
-9.014
-8.968
-8.947
-8.951
-8.978
-9.028
-9.101
-9.193
-9.306
-9.436
-9.582
-9.744
-9.92
-10.109
-10.309
-10.519
-10.74
-10.968
-11.205
-11.448
-11.697
-11.952
-12.212
-12.477
-12.746
-13.02
-13.298
-13.582
-13.871
-14.165
-14.466
-14.772
-15.086
-15.407
-15.736
-16.073
-16.418
-16.773
-17.138
-17.514
-17.901
-18.299
-18.71
-19.133
-19.569
-20.018
-20.48
-20.956
-21.445
-21.946
-22.461
-22.988
-23.526
-24.076
-24.635
-25.204
-25.781
-26.365
-26.954
-27.548
-28.145
-28.744
-29.344
-29.942
-30.539
-31.132
-31.72
-32.302
-32.876
-33.442
-33.998
-34.543
-35.075
-35.593
-36.096
-36.584
-37.055
-37.507
-37.941
-38.356
-38.75
-39.123
-39.475
-39.806
-40.115
-40.402
-40.668
-40.912
-41.136
-41.34
-41.524
-41.69
-41.837
-41.967
-42.08
-42.177
-42.259
-42.327
-42.382
-42.425
-42.456
-42.477
-42.488
-42.49
-42.484
-42.471
-42.452
-42.426
-42.396
-42.362
-42.325
-42.284
-42.241
-42.197
-42.15
-42.103
-42.055
-42.006
-41.955
-41.904
-41.852
-41.799
-41.743
-41.686
-41.627
-41.565
-41.5
-41.431
-41.359
-41.282
-41.202
-41.116
-41.025
-40.93
-40.829
-40.723
-40.612
-40.496
-40.375
-40.25
-40.12
-39.987
-39.851
-39.712
-39.572
-39.43
-39.289
-39.148
-39.01
-38.875
-38.744
-38.619
-38.5
-38.39
-38.29
-38.2
-38.123
-38.059
-38.01
-37.977
-37.961
-37.964
-37.986
-38.027
-38.09
-38.174
-38.279
-38.407
-38.556
-38.728
-38.921
-39.135
-39.369
-39.622
-39.893
-40.181
-40.482
-40.796
-41.121
-41.452
-41.789
-42.128
-42.465
-42.799
-43.126
-43.442
-43.744
-44.029
-44.293
-44.532
-44.744
-44.923
-45.067
-45.173
-45.236
-45.254
-45.224
-45.143
-45.007
-44.816
-44.565
-44.254
-43.881
-43.443
-42.941
-42.375
-41.743
-41.047
-40.289
-39.468
-38.588
-37.651
-36.659
-35.617
-34.527
-33.394
-32.224
-31.02
-29.79
-28.539
-27.275
-26.004
-24.735
-23.476
-22.235
-21.022
-19.845
-18.716
-17.643
-16.635
-15.701
-14.848
-14.085
-13.419
-12.857
-12.404
-12.066
-11.847
-11.751
-11.783
-11.945
-12.233
-12.645
-13.176
-13.822
-14.585
-15.464
-16.456
-17.559
-18.767
-20.076
-21.483
-22.978
-24.542
-26.151
-27.783
-29.419
-31.054
-32.685
-34.302
-35.892
-37.424
-38.87
-40.206
-41.416
-42.477
-43.361
-44.072
-44.648
-45.167
-45.749
-46.499
-47.488
-48.765
-50.362
-52.219
-54.214
-56.22
-58.028
-59.448
-60.336
-60.534
-59.945
-58.679
-56.947
-54.911
-52.831
-50.931
-49.446
-48.841
-49.492
-51.452
-54.672
-59.102
-64.553
-70.879
-77.348
-82.312
-84.318
-82.507
-77.126
-69.139
-58.401
-42.924
-19.32
14.877
59.567
111.593
165.985
219.47
270.283
317.114
357.446
385.08
393.275
378.189
340.563
286.377
222.457
152.633
78.481
0.921
-76.604
-145.268
-195.407
-220.733
-219.665
-199.067
-169.21
-138.785
-115.357
-100.086
-90.232
-83.028
-74.183
-62.666
-50.173
-38.282
-29.585
-25.005
-23.562
-24.275
-25.856
-27.31
-28.332
-28.664
-28.046
-26.494
-24.195
-21.362
-18.258
-15.188
-12.364
-10.023
-8.456
-7.719
-7.707
-8.265
-9.17
-10.249
-11.404
-12.505
-13.392
-13.965
-14.16
-13.958
-13.396
-12.495
-11.262
-9.714
-7.883
-5.813
-3.572
-1.23
1.162
3.571
5.976
8.362
10.711
13.009
15.244
17.419
19.545
21.628
23.671
25.676
27.653
29.62
31.607
33.646
35.764
37.976
40.297
42.737
45.307
48.013
50.86
53.843
56.959
60.206
63.586
67.097
70.738
74.501
78.378
82.358
86.432
90.588
94.816
99.1
103.428
107.785
112.158
116.533
120.895
125.227
129.512
133.73
137.863
141.891
145.796
149.557
153.154
156.57
159.785
162.782
165.544
168.057
170.303
172.27
173.946
175.317
176.375
177.109
177.514
177.582
177.31
176.695
175.737
174.435
172.794
170.816
168.508
165.878
162.934
159.686
156.146
152.328
148.245
143.914
139.352
134.575
129.604
124.457
119.154
113.717
108.165
102.519
96.801
91.032
85.232
79.422
73.621
67.85
62.127
56.471
50.9
45.43
40.077
34.856
29.78
24.862
20.113
15.543
11.161
6.974
2.99
-0.786
-4.352
-7.702
-10.837
-13.756
-16.459
-18.947
-21.224
-23.294
-25.16
-26.828
-28.304
-29.595
-30.708
-31.651
-32.432
-33.06
-33.544
-33.893
-34.118
-34.226
-34.229
-34.135
-33.954
-33.695
-33.367
-32.979
-32.538
-32.054
-31.533
-30.982
-30.409
-29.819
-29.218
-28.612
-28.005
-27.401
-26.806
-26.221
-25.65
-25.095
-24.559
-24.044
-23.55
-23.079
-22.632
-22.208
-21.808
-21.431
-21.078
-20.746
-20.436
-20.145
-19.873
-19.617
-19.377
-19.151
-18.938
-18.736
-18.544
-18.361
-18.185
-18.015
-17.851
-17.692
-17.536
-17.384
-17.235
-17.088
-16.944
-16.801
-16.661
-16.522
-16.384
-16.249
-16.116
-15.985
-15.857
-15.732
-15.61
-15.492
-15.38
-15.272
-15.171
-15.078
-14.992
-14.916
-14.849
-14.793
-14.748
-14.715
-14.695
-14.687
-14.693
-14.711
-14.743
-14.789
-14.847
-14.919
-15.003
-15.099
-15.207
-15.327
-15.457
-15.598
-15.749
-15.909
-16.078
-16.255
-16.439
-16.631
-16.829
-17.033
-17.241
-17.454
-17.669
-17.887
-18.107
-18.327
-18.546
-18.765
-18.982
-19.196
-19.408
-19.616
-19.82
-20.02
-20.216
-20.408
-20.595
-20.778
-20.957
-21.132
-21.303
-21.47
-21.634
-21.794
-21.951
-22.105
-22.255
-22.403
-22.547
-22.688
-22.826
-22.961
-23.094
-23.223
-23.35
-23.475
-23.598
-23.719
-23.838
-23.956
-24.074
-24.191
-24.309
-24.427
-24.545
-24.665
-24.786
-24.908
-25.033
-25.16
-25.29
-25.423
-25.56
-25.701
-25.847
-25.998
-26.156
-26.322
-26.496
-26.68
-26.874
-27.082
-27.302
-27.538
-27.789
-28.058
-28.346
-28.653
-28.981
-29.33
-29.702
-30.096
-30.513
-30.953
-31.415
-31.9
-32.406
-32.934
-33.481
-34.048
-34.632
-35.233
-35.847
-36.474
-37.112
-37.756
-38.405
-39.056
-39.704
-40.346
-40.978
-41.595
-42.194
-42.769
-43.316
-43.829
-44.304
-44.735
-45.118
-45.446
-45.716
-45.922
-46.061
-46.128
-46.12
-46.035
-45.868
-45.619
-45.284
-44.864
-44.357
-43.763
-43.082
-42.315
-41.465
-40.533
-39.524
-38.44
-37.287
-36.069
-34.792
-33.465
-32.096
-30.695
-29.271
-27.835
-26.395
-24.963
-23.55
-22.163
-20.815
-19.513
-18.267
-17.089
-15.989
-14.977
-14.064
-13.255
-12.554
-11.96
-11.473
-11.099
-10.849
-10.729
-10.746
-10.905
-11.2
-11.647
-12.262
-13.016
-13.88
-14.818
-15.777
-16.779
-17.859
-18.986
-20.133
-21.343
-22.621
-24.015
-25.595
-27.238
-28.81
-30.297
-31.66
-32.829
-33.794
-34.459
-34.72
-34.746
-34.709
-34.677
-34.776
-35.094
-35.691
-36.765
-38.491
-40.806
-43.615
-46.789
-50.114
-53.459
-56.66
-59.419
-61.487
-62.75
-63.201
-63.072
-62.733
-62.469
-62.533
-63.291
-65.051
-67.919
-71.835
-75.952
-78.644
-78.919
-76.151
-70.005
-61.07
-48.132
-28.381
-0.038
38.146
84.573
134.587
184.91
233.823
280.318
323.56
359.499
380.698
381.063
358.421
315.296
258.603
194.557
125.899
54.297
-18.201
-86.963
-143.711
-181.267
-196.55
-190.645
-170.316
-143.909
-118.469
-100.228
-90.392
-87.061
-87.111
-85.395
-80.099
-72.061
-62.771
-55.31
-50.83
-48.582
-47.974
-47.958
-47.851
-47.695
-47.339
-46.51
-45.203
-43.494
-41.429
-39.158
-36.868
-34.669
-32.779
-31.482
-30.853
-30.829
-31.311
-32.124
-33.121
-34.213
-35.272
-36.143
-36.74
-37.016
-36.948
-36.548
-35.822
-34.766
-33.391
-31.732
-29.824
-27.718
-25.474
-23.142
-20.763
-18.373
-15.988
-13.62
-11.281
-8.974
-6.696
-4.45
-2.234
-0.045
2.116
4.256
6.389
8.533
10.718
12.971
15.313
17.758
20.322
23.012
25.841
28.812
31.922
35.167
38.542
42.039
45.655
49.377
53.19
57.075
61.016
64.998
69.009
73.037
77.072
81.099
85.102
89.073
93.012
96.919
100.799
104.656
108.494
112.324
116.166
120.035
123.933
127.858
131.794
135.724
139.631
143.493
147.29
150.986
154.539
157.906
161.041
163.898
166.432
168.582
170.276
171.454
172.067
172.082
171.478
170.234
168.335
165.779
162.576
158.751
154.335
149.36
143.854
137.851
131.395
124.553
117.405
110.022
102.476
94.833
87.157
79.528
72.015
64.671
57.534
50.633
43.996
37.661
31.673
26.066
20.861
16.06
11.655
7.64
4.002
0.718
-2.247
-4.949
-7.432
-9.726
-11.847
-13.807
-15.628
-17.338
-18.976
-20.565
-22.124
-23.663
-25.188
-26.712
-28.235
-29.746
-31.222
-32.625
-33.929
-35.124
-36.205
-37.17
-38.016
-38.735
-39.318
-39.768
-40.09
-40.286
-40.363
-40.32
-40.167
-39.917
-39.596
-39.228
-38.835
-38.43
-38.024
-37.626
-37.245
-36.889
-36.562
-36.264
-35.995
-35.759
-35.556
-35.391
-35.264
-35.174
-35.116
-35.088
-35.087
-35.109
-35.154
-35.219
-35.303
-35.403
-35.521
-35.657
-35.81
-35.981
-36.166
-36.364
-36.574
-36.793
-37.02
-37.252
-37.488
-37.726
-37.964
-38.202
-38.439
-38.673
-38.903
-39.131
-39.353
-39.572
-39.785
-39.993
-40.197
-40.396
-40.59
-40.78
-40.966
-41.148
-41.326
-41.501
-41.672
-41.84
-42.005
-42.165
-42.323
-42.476
-42.625
-42.771
-42.912
-43.049
-43.181
-43.308
-43.431
-43.547
-43.658
-43.762
-43.858
-43.946
-44.025
-44.094
-44.153
-44.2
-44.234
-44.255
-44.263
-44.255
-44.231
-44.191
-44.134
-44.06
-43.967
-43.857
-43.728
-43.581
-43.416
-43.232
-43.03
-42.81
-42.573
-42.319
-42.048
-41.762
-41.461
-41.145
-40.816
-40.474
-40.121
-39.758
-39.386
-39.006
-38.619
-38.226
-37.829
-37.43
-37.028
-36.627
-36.226
-35.828
-35.433
-35.043
-34.658
-34.281
-33.911
-33.55
-33.198
-32.857
-32.528
-32.21
-31.905
-31.613
-31.335
-31.071
-30.822
-30.588
-30.37
-30.168
-29.982
-29.812
-29.659
-29.522
-29.402
-29.299
-29.213
-29.143
-29.09
-29.053
-29.032
-29.027
-29.037
-29.061
-29.098
-29.149
-29.212
-29.286
-29.369
-29.462
-29.561
-29.667
-29.778
-29.891
-30.004
-30.117
-30.227
-30.332
-30.43
-30.518
-30.593
-30.654
-30.698
-30.721
-30.721
-30.695
-30.64
-30.553
-30.431
-30.271
-30.07
-29.826
-29.535
-29.196
-28.806
-28.362
-27.864
-27.309
-26.696
-26.024
-25.293
-24.503
-23.653
-22.744
-21.777
-20.754
-19.676
-18.547
-17.368
-16.143
-14.877
-13.572
-12.236
-10.872
-9.487
-8.09
-6.686
-5.285
-3.895
-2.525
-1.184
0.119
1.375
2.576
3.713
4.78
5.766
6.663
7.463
8.159
8.743
9.209
9.55
9.764
9.846
9.797
9.615
9.297
8.838
8.234
7.483
6.582
5.534
4.343
3.015
1.56
-0.003
-1.656
-3.378
-5.15
-6.956
-8.782
-10.605
-12.403
-14.146
-15.804
-17.354
-18.774
-20.047
-21.167
-22.137
-22.978
-23.727
-24.42
-25.094
-25.793
-26.559
-27.443
-28.496
-29.761
-31.287
-33.153
-35.412
-38.08
-41.114
-44.368
-47.668
-50.854
-53.72
-56.007
-57.503
-58.067
-57.755
-56.876
-55.767
-54.767
-54.26
-54.612
-56.203
-58.897
-61.765
-63.72
-63.552
-61.239
-58.017
-53.552
-46.498
-33.278
-8.64
28.408
76.076
130.039
183.937
235.966
285.846
331.915
371.277
396.144
398.75
376.506
331.546
271.229
203.446
132.526
60.826
-9.935
-76.288
-131.763
-170.285
-188.747
-187.639
-172.321
-149.847
-126.427
-107.729
-95.25
-87.671
-82.725
-76.318
-66.921
-55.465
-43.511
-33.875
-27.898
-25.121
-24.776
-25.767
-27.372
-29.373
-31.522
-33.478
-34.864
-35.503
-35.439
-34.762
-33.64
-32.253
-30.735
-29.324
-28.279
-27.684
-27.507
-27.669
-28.032
-28.493
-28.984
-29.382
-29.549
-29.402
-28.895
-28.025
-26.837
-25.365
-23.647
-21.741
-19.705
-17.584
-15.428
-13.266
-11.111
-8.972
-6.849
-4.739
-2.642
-0.564
1.492
3.524
5.54
7.548
9.566
11.612
13.707
15.87
18.124
20.489
22.979
25.601
28.361
31.26
34.304
37.5
40.853
44.365
48.034
51.854
55.82
59.922
64.145
68.469
72.873
77.334
81.834
86.363
90.91
95.462
100.007
104.529
109.018
113.472
117.895
122.284
126.64
130.96
135.25
139.53
143.814
148.105
152.404
156.693
160.947
165.147
169.267
173.274
177.126
180.766
184.126
187.155
189.801
192.015
193.745
194.922
195.486
195.398
194.63
193.173
191.032
188.21
184.72
180.597
175.887
170.656
164.986
158.939
152.576
145.959
139.153
132.236
125.281
118.343
111.467
104.689
98.04
91.55
85.247
79.137
73.218
67.48
61.899
56.467
51.182
46.039
41.035
36.162
31.412
26.789
22.303
17.961
13.772
9.739
5.868
2.171
-1.337
-4.641
-7.722
-10.571
-13.182
-15.553
-17.682
-19.573
-21.228
-22.656
-23.871
-24.885
-25.71
-26.356
-26.834
-27.158
-27.343
-27.404
-27.355
-27.211
-26.985
-26.689
-26.335
-25.936
-25.501
-25.039
-24.558
-24.066
-23.571
-23.08
-22.602
-22.142
-21.706
-21.299
-20.925
-20.59
-20.294
-20.04
-19.829
-19.66
-19.533
-19.447
-19.401
-19.391
-19.417
-19.474
-19.559
-19.669
-19.8
-19.949
-20.11
-20.28
-20.456
-20.633
-20.807
-20.976
-21.135
-21.282
-21.415
-21.53
-21.625
-21.698
-21.748
-21.773
-21.771
-21.743
-21.688
-21.606
-21.496
-21.361
-21.2
-21.016
-20.81
-20.583
-20.34
-20.08
-19.809
-19.527
-19.239
-18.946
-18.653
-18.361
-18.075
-17.797
-17.53
-17.276
-17.038
-16.819
-16.621
-16.445
-16.294
-16.169
-16.071
-16.001
-15.96
-15.948
-15.967
-16.015
-16.093
-16.2
-16.335
-16.498
-16.687
-16.901
-17.139
-17.399
-17.679
-17.977
-18.291
-18.62
-18.959
-19.308
-19.663
-20.022
-20.383
-20.743
-21.099
-21.449
-21.791
-22.123
-22.442
-22.747
-23.035
-23.305
-23.555
-23.784
-23.992
-24.176
-24.337
-24.473
-24.586
-24.673
-24.736
-24.775
-24.79
-24.782
-24.751
-24.698
-24.624
-24.531
-24.419
-24.291
-24.148
-23.991
-23.823
-23.646
-23.462
-23.272
-23.08
-22.886
-22.694
-22.505
-22.322
-22.147
-21.981
-21.828
-21.687
-21.562
-21.454
-21.362
-21.29
-21.236
-21.201
-21.185
-21.189
-21.211
-21.251
-21.308
-21.381
-21.468
-21.568
-21.678
-21.797
-21.92
-22.047
-22.173
-22.294
-22.408
-22.509
-22.594
-22.659
-22.701
-22.714
-22.694
-22.638
-22.54
-22.397
-22.203
-21.955
-21.648
-21.278
-20.841
-20.335
-19.758
-19.108
-18.383
-17.583
-16.707
-15.76
-14.738
-13.644
-12.478
-11.241
-9.94
-8.582
-7.172
-5.719
-4.23
-2.714
-1.184
0.347
1.872
3.385
4.878
6.345
7.769
9.134
10.429
11.637
12.752
13.767
14.67
15.447
16.095
16.606
16.982
17.225
17.316
17.237
16.977
16.526
15.885
15.058
14.037
12.82
11.401
9.776
7.95
5.933
3.72
1.312
-1.285
-4.07
-7.005
-10.053
-13.191
-16.391
-19.641
-22.931
-26.23
-29.5
-32.709
-35.82
-38.807
-41.673
-44.398
-46.959
-49.376
-51.669
-53.924
-56.287
-58.835
-61.577
-64.511
-67.603
-70.821
-74.19
-77.602
-80.791
-83.578
-85.835
-87.518
-88.715
-89.427
-89.514
-89.007
-88.162
-87.279
-86.747
-86.786
-87.464
-89.053
-91.823
-95.92
-100.897
-105.511
-108.873
-110.488
-110.395
-109.306
-105.639
-96.084
-77.399
-46.372
-4.093
44.88
96.234
146.11
194.112
241.833
288.705
330.773
360.697
370.811
356.28
317.963
260.888
190.697
113.276
32.528
-47.825
-121.661
-182.393
-223.864
-242.816
-240.55
-222.666
-196.683
-169.533
-147.069
-130.82
-119.414
-110.658
-100.871
-89.104
-76.719
-65.289
-57.253
-53.365
-52.67
-54.115
-56.299
-58.17
-59.263
-59.188
-57.818
-55.318
-51.95
-48.051
-43.984
-40.125
-36.839
-34.473
-33.206
-33
-33.704
-35.099
-36.941
-39.024
-41.158
-43.144
-44.859
-46.237
-47.232
-47.841
-48.075
-47.928
-47.415
-46.564
-45.389
-43.919
-42.2
-40.276
-38.209
-36.062
-33.873
-31.671
-29.482
-27.319
-25.203
-23.144
-21.136
-19.171
-17.242
-15.339
-13.454
-11.573
-9.67
-7.718
-5.689
-3.552
-1.284
1.136
3.725
6.49
9.438
12.57
15.88
19.359
22.999
26.783
30.698
34.732
38.867
43.096
47.408
51.791
56.231
60.713
65.228
69.774
74.356
78.972
83.625
88.316
93.047
97.838
102.698
107.627
112.621
117.659
122.715
127.766
132.784
137.735
142.577
147.25
151.686
155.833
159.635
163.041
165.998
168.434
170.291
171.527
172.11
172.028
171.279
169.86
167.776
165.053
161.727
157.855
153.505
148.735
143.596
138.144
132.435
126.54
120.525
114.438
108.32
102.204
96.117
90.09
84.15
78.306
72.561
66.907
61.325
55.812
50.369
44.994
39.689
34.449
29.272
24.166
19.146
14.225
9.414
4.724
0.163
-4.253
-8.505
-12.573
-16.436
-20.079
-23.495
-26.673
-29.61
-32.302
-34.748
-36.953
-38.925
-40.674
-42.204
-43.526
-44.645
-45.572
-46.32
-46.899
-47.323
-47.603
-47.752
-47.78
-47.699
-47.52
-47.253
-46.908
-46.492
-46.015
-45.485
-44.912
-44.304
-43.67
-43.016
-42.352
-41.682
-41.015
-40.354
-39.704
-39.069
-38.452
-37.856
-37.283
-36.734
-36.211
-35.714
-35.243
-34.799
-34.382
-33.99
-33.624
-33.281
-32.961
-32.662
-32.384
-32.123
-31.879
-31.651
-31.436
-31.234
-31.042
-30.86
-30.686
-30.519
-30.358
-30.202
-30.05
-29.901
-29.755
-29.611
-29.471
-29.334
-29.201
-29.072
-28.948
-28.829
-28.718
-28.614
-28.518
-28.431
-28.354
-28.287
-28.231
-28.187
-28.154
-28.135
-28.128
-28.135
-28.155
-28.189
-28.237
-28.298
-28.373
-28.461
-28.562
-28.675
-28.8
-28.937
-29.084
-29.241
-29.406
-29.578
-29.757
-29.941
-30.128
-30.316
-30.505
-30.693
-30.878
-31.058
-31.234
-31.403
-31.564
-31.716
-31.859
-31.992
-32.115
-32.225
-32.324
-32.411
-32.486
-32.547
-32.595
-32.63
-32.651
-32.659
-32.652
-32.632
-32.597
-32.547
-32.482
-32.402
-32.306
-32.195
-32.067
-31.922
-31.761
-31.583
-31.387
-31.174
-30.943
-30.694
-30.426
-30.138
-29.83
-29.5
-29.148
-28.772
-28.371
-27.943
-27.488
-27.003
-26.488
-25.941
-25.361
-24.747
-24.098
-23.413
-22.691
-21.933
-21.137
-20.304
-19.434
-18.529
-17.589
-16.615
-15.609
-14.573
-13.509
-12.42
-11.308
-10.176
-9.028
-7.866
-6.696
-5.522
-4.348
-3.18
-2.025
-0.89
0.217
1.291
2.321
3.302
4.223
5.079
5.862
6.566
7.185
7.712
8.14
8.462
8.674
8.771
8.748
8.603
8.331
7.931
7.406
6.757
5.985
5.091
4.068
2.915
1.633
0.225
-1.306
-2.954
-4.71
-6.563
-8.491
-10.472
-12.484
-14.506
-16.526
-18.525
-20.48
-22.361
-24.137
-25.778
-27.266
-28.588
-29.729
-30.682
-31.452
-32.059
-32.544
-32.952
-33.326
-33.706
-34.14
-34.685
-35.397
-36.342
-37.597
-39.206
-41.181
-43.488
-46.021
-48.64
-51.204
-53.528
-55.383
-56.588
-57.023
-56.701
-55.856
-54.803
-53.81
-53.125
-53.023
-53.775
-55.575
-58.354
-61.166
-62.438
-60.899
-55.723
-47.392
-37.101
-24.488
-7.827
16.025
50.352
95.228
148.052
204.649
259.988
310.602
353.628
384.573
399.091
393.839
367.077
321.638
261.939
190.842
111.894
28.68
-53.688
-125.907
-178.96
-208.38
-213.65
-199.394
-174.054
-143.602
-113.388
-88.613
-70.015
-58.013
-51.459
-45.895
-39.824
-33.175
-26.536
-22.76
-22.768
-25.723
-30.611
-35.523
-39.202
-41.342
-41.812
-40.806
-38.641
-35.578
-31.959
-28.219
-24.762
-21.919
-19.861
-18.573
-17.953
-17.84
-18.055
-18.424
-18.771
-18.933
-18.824
-18.431
-17.762
-16.846
-15.708
-14.347
-12.794
-11.1
-9.3
-7.422
-5.489
-3.513
-1.519
0.455
2.391
4.28
6.122
7.925
9.689
11.411
13.093
14.739
16.358
17.969
19.585
21.22
22.89
24.609
26.396
28.27
30.245
32.326
34.52
36.835
39.277
41.857
44.576
47.434
50.429
53.553
56.799
60.156
63.604
67.125
70.701
74.314
77.956
81.618
85.292
88.968
92.633
96.276
99.9
103.506
107.096
110.668
114.223
117.764
121.311
124.88
128.478
132.107
135.749
139.379
142.971
146.5
149.933
153.23
156.336
159.187
161.736
163.942
165.772
167.19
168.133
168.545
168.378
167.601
166.2
164.175
161.525
158.248
154.364
149.904
144.926
139.498
133.665
127.457
120.894
114
106.835
99.465
91.949
84.338
76.677
69.012
61.402
53.915
46.597
39.475
32.557
25.84
19.348
13.123
7.22
1.684
-3.469
-8.232
-12.603
-16.572
-20.139
-23.322
-26.159
-28.706
-30.999
-33.059
-34.891
-36.501
-37.908
-39.152
-40.278
-41.318
-42.296
-43.229
-44.134
-45.03
-45.929
-46.823
-47.687
-48.488
-49.205
-49.83
-50.365
-50.811
-51.167
-51.423
-51.574
-51.622
-51.57
-51.423
-51.184
-50.853
-50.436
-49.949
-49.416
-48.861
-48.304
-47.757
-47.231
-46.731
-46.267
-45.843
-45.463
-45.124
-44.824
-44.563
-44.344
-44.166
-44.03
-43.931
-43.866
-43.83
-43.819
-43.829
-43.858
-43.903
-43.961
-44.03
-44.11
-44.201
-44.303
-44.412
-44.527
-44.646
-44.767
-44.886
-45.003
-45.113
-45.214
-45.305
-45.384
-45.45
-45.502
-45.539
-45.56
-45.565
-45.554
-45.527
-45.484
-45.425
-45.351
-45.261
-45.157
-45.04
-44.909
-44.765
-44.609
-44.441
-44.263
-44.074
-43.874
-43.665
-43.447
-43.221
-42.987
-42.747
-42.502
-42.254
-42.002
-41.75
-41.498
-41.248
-41.001
-40.758
-40.521
-40.29
-40.068
-39.854
-39.65
-39.457
-39.275
-39.107
-38.951
-38.81
-38.684
-38.574
-38.48
-38.403
-38.343
-38.302
-38.281
-38.28
-38.299
-38.339
-38.401
-38.484
-38.588
-38.714
-38.861
-39.027
-39.214
-39.418
-39.64
-39.878
-40.13
-40.395
-40.67
-40.954
-41.244
-41.537
-41.831
-42.123
-42.41
-42.69
-42.959
-43.215
-43.454
-43.674
-43.871
-44.042
-44.183
-44.291
-44.361
-44.39
-44.375
-44.312
-44.198
-44.029
-43.803
-43.517
-43.169
-42.755
-42.274
-41.725
-41.105
-40.414
-39.651
-38.816
-37.911
-36.936
-35.894
-34.785
-33.612
-32.38
-31.089
-29.746
-28.353
-26.915
-25.437
-23.925
-22.386
-20.827
-19.255
-17.679
-16.108
-14.552
-13.019
-11.522
-10.071
-8.677
-7.351
-6.101
-4.938
-3.87
-2.907
-2.059
-1.332
-0.733
-0.269
0.053
0.226
0.246
0.11
-0.178
-0.615
-1.199
-1.931
-2.816
-3.854
-5.044
-6.383
-7.87
-9.503
-11.278
-13.181
-15.188
-17.269
-19.4
-21.561
-23.746
-25.949
-28.153
-30.325
-32.427
-34.419
-36.277
-37.993
-39.542
-40.886
-42.026
-42.987
-43.866
-44.818
-45.93
-47.213
-48.676
-50.303
-52.078
-54.025
-56.044
-57.882
-59.403
-60.558
-61.364
-61.966
-62.419
-62.628
-62.668
-62.792
-63.156
-63.959
-65.325
-67.131
-69.449
-72.475
-76.102
-80.117
-84.313
-88.151
-90.98
-91.922
-89.44
-82.067
-69.042
-50.784
-28.356
-2.652
26.134
59.964
100.744
149.225
205.278
264.976
322.67
371.641
403.883
414.252
400.509
364.564
311.828
247.331
175.722
99.902
23.058
-48.643
-108.693
-151.257
-174.124
-180.256
-174.247
-160.756
-143.002
-122.713
-102.292
-84.285
-70.641
-61.917
-56.395
-52.142
-48.192
-44.585
-42.646
-43.139
-45.707
-49.52
-53.214
-55.826
-57.019
-56.737
-55.221
-52.762
-49.611
-46.06
-42.442
-39.083
-36.296
-34.231
-32.871
-32.136
-31.875
-31.93
-32.154
-32.375
-32.425
-32.213
-31.707
-30.911
-29.86
-28.581
-27.09
-25.419
-23.601
-21.662
-19.622
-17.496
-15.294
-13.041
-10.762
-8.482
-6.221
-3.985
-1.778
0.403
2.563
4.708
6.85
9.002
11.175
13.378
15.62
17.912
20.262
22.683
25.186
27.781
30.476
33.28
36.197
39.23
42.381
45.65
49.036
52.536
56.146
59.864
63.685
67.603
71.61
75.7
79.861
84.084
88.356
92.664
96.993
101.329
105.654
109.953
114.208
118.401
122.515
126.529
130.427
134.189
137.796
141.231
144.474
147.509
150.318
152.885
155.195
157.233
158.985
160.44
161.587
162.416
162.918
163.089
162.922
162.415
161.567
160.376
158.846
156.981
154.785
152.265
149.432
146.294
142.864
139.154
135.18
130.957
126.502
121.832
116.966
111.924
106.725
101.389
95.939
90.395
84.778
79.11
73.412
67.705
62.011
56.348
50.737
45.197
39.747
34.402
29.181
24.097
19.166
14.4
9.811
5.409
1.203
-2.799
-6.59
-10.166
-13.522
-16.656
-19.566
-22.253
-24.718
-26.962
-28.989
-30.804
-32.41
-33.815
-35.026
-36.05
-36.894
-37.569
-38.084
-38.448
-38.671
-38.765
-38.739
-38.604
-38.372
-38.052
-37.656
-37.194
-36.677
-36.113
-35.512
-34.883
-34.235
-33.576
-32.913
-32.253
-31.602
-30.966
-30.351
-29.761
-29.2
-28.672
-28.179
-27.724
-27.31
-26.936
-26.605
-26.316
-26.07
-25.866
-25.703
-25.581
-25.498
-25.453
-25.443
-25.466
-25.52
-25.603
-25.711
-25.843
-25.996
-26.167
-26.353
-26.552
-26.762
-26.98
-27.204
-27.432
-27.662
-27.892
-28.12
-28.344
-28.565
-28.779
-28.986
-29.185
-29.376
-29.557
-29.728
-29.89
-30.041
-30.181
-30.311
-30.43
-30.538
-30.636
-30.724
-30.802
-30.87
-30.929
-30.979
-31.02
-31.053
-31.077
-31.094
-31.102
-31.103
-31.097
-31.083
-31.062
-31.033
-30.997
-30.953
-30.903
-30.844
-30.778
-30.705
-30.623
-30.533
-30.434
-30.327
-30.211
-30.085
-29.95
-29.806
-29.652
-29.488
-29.314
-29.13
-28.937
-28.734
-28.523
-28.303
-28.075
-27.839
-27.598
-27.35
-27.098
-26.842
-26.584
-26.324
-26.065
-25.807
-25.551
-25.3
-25.053
-24.813
-24.581
-24.358
-24.146
-23.945
-23.758
-23.585
-23.427
-23.287
-23.165
-23.061
-22.978
-22.915
-22.874
-22.854
-22.857
-22.882
-22.929
-22.998
-23.088
-23.2
-23.331
-23.48
-23.646
-23.828
-24.022
-24.227
-24.442
-24.662
-24.886
-25.111
-25.334
-25.552
-25.764
-25.964
-26.152
-26.323
-26.474
-26.602
-26.704
-26.776
-26.814
-26.817
-26.78
-26.701
-26.576
-26.403
-26.179
-25.902
-25.57
-25.181
-24.734
-24.226
-23.659
-23.03
-22.341
-21.592
-20.785
-19.921
-19.003
-18.032
-17.012
-15.946
-14.837
-13.69
-12.508
-11.297
-10.063
-8.81
-7.545
-6.276
-5.011
-3.758
-2.526
-1.323
-0.159
0.956
2.012
3
3.912
4.739
5.475
6.109
6.635
7.045
7.333
7.494
7.523
7.416
7.167
6.775
6.243
5.572
4.767
3.826
2.745
1.52
0.153
-1.354
-2.996
-4.768
-6.663
-8.669
-10.764
-12.922
-15.117
-17.323
-19.525
-21.712
-23.865
-25.964
-27.973
-29.848
-31.565
-33.103
-34.449
-35.607
-36.578
-37.35
-37.976
-38.548
-39.154
-39.908
-40.855
-41.953
-43.215
-44.727
-46.53
-48.603
-50.853
-53.051
-55.053
-56.901
-58.562
-59.881
-60.676
-60.807
-60.292
-59.481
-58.75
-58.228
-58.123
-58.741
-60.378
-63.415
-67.565
-71.544
-74.135
-74.21
-71.795
-68.267
-63.307
-55.303
-40.745
-14.543
24.628
75.041
132.977
192.97
252.358
309.775
361.795
402.997
425.612
423.045
394.488
344.784
281.924
212.449
139.061
62.598
-15.317
-88.086
-145.831
-180.637
-188.497
-174.07
-147.795
-119.662
-98.814
-87.833
-83.664
-82.545
-79.072
-71.011
-60.091
-48.54
-39.507
-34.591
-33.067
-33.713
-35.232
-36.906
-38.501
-39.885
-40.885
-41.17
-40.661
-39.528
-37.866
-35.811
-33.569
-31.259
-29.098
-27.371
-26.144
-25.359
-24.944
-24.759
-24.682
-24.647
-24.544
-24.238
-23.672
-22.83
-21.723
-20.405
-18.911
-17.256
-15.47
-13.583
-11.622
-9.614
-7.583
-5.544
-3.516
-1.514
0.453
2.378
4.26
6.105
7.92
9.72
11.517
13.324
15.153
17.013
18.915
20.871
22.894
24.995
27.184
29.468
31.857
34.359
36.982
39.734
42.62
45.641
48.794
52.074
55.474
58.981
62.58
66.256
69.995
73.786
77.622
81.501
85.422
89.382
93.372
97.377
101.383
105.378
109.349
113.287
117.191
121.062
124.908
128.741
132.56
136.359
140.114
143.79
147.344
150.726
153.895
156.819
159.467
161.816
163.837
165.507
166.793
167.662
168.07
167.971
167.33
166.125
164.357
162.044
159.221
155.936
152.233
148.15
143.722
138.978
133.947
128.659
123.146
117.445
111.601
105.671
99.703
93.739
87.809
81.925
76.092
70.302
64.55
58.836
53.163
47.542
41.985
36.509
31.128
25.858
20.71
15.686
10.788
6.019
1.389
-3.091
-7.403
-11.525
-15.439
-19.128
-22.579
-25.785
-28.742
-31.45
-33.91
-36.131
-38.116
-39.869
-41.396
-42.701
-43.791
-44.673
-45.358
-45.859
-46.187
-46.356
-46.378
-46.268
-46.036
-45.695
-45.256
-44.728
-44.121
-43.445
-42.712
-41.931
-41.113
-40.268
-39.406
-38.535
-37.665
-36.803
-35.958
-35.134
-34.338
-33.575
-32.851
-32.167
-31.53
-30.94
-30.4
-29.912
-29.478
-29.097
-28.771
-28.498
-28.279
-28.112
-27.996
-27.929
-27.91
-27.935
-28.004
-28.112
-28.259
-28.441
-28.655
-28.9
-29.17
-29.465
-29.781
-30.114
-30.462
-30.822
-31.191
-31.567
-31.948
-32.33
-32.713
-33.094
-33.471
-33.842
-34.207
-34.563
-34.91
-35.245
-35.569
-35.88
-36.177
-36.459
-36.726
-36.978
-37.214
-37.433
-37.635
-37.821
-37.99
-38.141
-38.276
-38.395
-38.497
-38.583
-38.653
-38.708
-38.748
-38.775
-38.787
-38.786
-38.773
-38.748
-38.711
-38.664
-38.606
-38.539
-38.463
-38.379
-38.288
-38.189
-38.085
-37.975
-37.861
-37.743
-37.623
-37.5
-37.377
-37.254
-37.131
-37.009
-36.89
-36.774
-36.661
-36.552
-36.448
-36.35
-36.257
-36.17
-36.09
-36.018
-35.952
-35.894
-35.844
-35.803
-35.77
-35.746
-35.732
-35.727
-35.732
-35.747
-35.773
-35.809
-35.856
-35.913
-35.98
-36.058
-36.146
-36.244
-36.351
-36.468
-36.594
-36.729
-36.873
-37.025
-37.185
-37.352
-37.527
-37.709
-37.897
-38.091
-38.291
-38.496
-38.706
-38.92
-39.137
-39.357
-39.578
-39.799
-40.02
-40.237
-40.451
-40.659
-40.859
-41.05
-41.231
-41.398
-41.552
-41.689
-41.807
-41.906
-41.983
-42.036
-42.063
-42.063
-42.032
-41.968
-41.87
-41.735
-41.562
-41.348
-41.092
-40.79
-40.443
-40.047
-39.602
-39.106
-38.558
-37.957
-37.303
-36.597
-35.839
-35.03
-34.171
-33.264
-32.311
-31.314
-30.277
-29.201
-28.091
-26.95
-25.782
-24.592
-23.384
-22.164
-20.938
-19.713
-18.496
-17.294
-16.115
-14.967
-13.859
-12.801
-11.801
-10.865
-10.002
-9.219
-8.523
-7.921
-7.42
-7.023
-6.734
-6.557
-6.495
-6.553
-6.731
-7.027
-7.435
-7.953
-8.577
-9.313
-10.162
-11.119
-12.183
-13.351
-14.618
-15.985
-17.443
-18.972
-20.552
-22.154
-23.761
-25.359
-26.94
-28.492
-29.996
-31.418
-32.724
-33.886
-34.884
-35.713
-36.359
-36.798
-37.046
-37.157
-37.232
-37.425
-37.834
-38.48
-39.371
-40.511
-41.9
-43.534
-45.284
-46.854
-48.018
-48.676
-48.823
-48.543
-47.855
-46.719
-45.267
-43.897
-43.052
-43.128
-44.333
-46.615
-50.018
-54.677
-60.51
-67.123
-73.377
-77.466
-77.932
-74.058
-66.313
-55.792
-42.43
-24.332
1.942
39.053
86.947
142.239
199.454
254.545
304.91
348.986
384.311
405.303
406.604
384.65
340.2
278.535
205.201
125.835
44.623
-34.069
-103.731
-158.572
-193.567
-207.94
-204.952
-188.199
-163.229
-134.187
-104.542
-79.591
-61.423
-50.317
-44.864
-40.544
-35.21
-28.807
-22.151
-17.582
-15.826
-16.199
-17.752
-19.089
-19.464
-18.714
-16.864
-14.247
-11.183
-7.902
-4.705
-1.836
0.466
1.906
2.391
1.993
0.859
-0.771
-2.677
-4.714
-6.722
-8.522
-9.998
-11.061
-11.665
-11.832
-11.579
-10.916
-9.865
-8.449
-6.701
-4.679
-2.442
-0.055
2.426
4.971
7.554
10.151
12.743
15.306
17.831
20.324
22.791
25.24
27.675
30.097
32.52
34.968
37.47
40.053
42.742
45.546
48.478
51.546
54.756
58.111
61.609
65.239
68.995
72.871
76.862
80.963
85.163
89.451
93.811
98.229
102.691
107.18
111.682
116.178
120.652
125.087
129.467
133.776
137.996
142.108
146.093
149.931
153.604
157.09
160.372
163.43
166.245
168.801
171.081
173.07
174.755
176.123
177.162
177.863
178.218
178.218
177.86
177.14
176.056
174.608
172.798
170.63
168.108
165.241
162.036
158.505
154.658
150.509
146.072
141.364
136.401
131.202
125.786
120.174
114.386
108.444
102.371
96.19
89.922
83.592
77.222
70.834
64.451
58.094
51.785
45.543
39.39
33.342
27.419
21.635
16.008
10.551
5.276
0.196
-4.68
-9.342
-13.784
-17.998
-21.981
-25.727
-29.236
-32.506
-35.538
-38.332
-40.892
-43.222
-45.325
-47.208
-48.878
-50.342
-51.608
-52.685
-53.582
-54.309
-54.877
-55.296
-55.577
-55.731
-55.769
-55.701
-55.539
-55.293
-54.973
-54.589
-54.151
-53.667
-53.146
-52.597
-52.026
-51.442
-50.851
-50.259
-49.672
-49.094
-48.529
-47.983
-47.457
-46.955
-46.479
-46.03
-45.611
-45.221
-44.862
-44.533
-44.235
-43.966
-43.725
-43.512
-43.325
-43.162
-43.022
-42.902
-42.802
-42.718
-42.65
-42.596
-42.553
-42.521
-42.497
-42.481
-42.471
-42.466
-42.464
-42.466
-42.47
-42.475
-42.482
-42.49
-42.499
-42.509
-42.52
-42.531
-42.545
-42.56
-42.577
-42.597
-42.621
-42.648
-42.681
-42.719
-42.763
-42.815
-42.874
-42.942
-43.018
-43.104
-43.2
-43.306
-43.421
-43.547
-43.683
-43.828
-43.983
-44.146
-44.318
-44.497
-44.682
-44.873
-45.069
-45.268
-45.468
-45.67
-45.87
-46.068
-46.263
-46.452
-46.634
-46.807
-46.97
-47.122
-47.259
-47.382
-47.489
-47.578
-47.647
-47.697
-47.726
-47.732
-47.716
-47.677
-47.615
-47.529
-47.421
-47.289
-47.135
-46.96
-46.765
-46.55
-46.317
-46.068
-45.804
-45.527
-45.239
-44.943
-44.639
-44.332
-44.023
-43.714
-43.409
-43.11
-42.819
-42.54
-42.274
-42.024
-41.793
-41.583
-41.396
-41.234
-41.098
-40.991
-40.914
-40.867
-40.852
-40.868
-40.915
-40.994
-41.103
-41.241
-41.407
-41.598
-41.814
-42.051
-42.307
-42.578
-42.863
-43.156
-43.454
-43.754
-44.05
-44.339
-44.616
-44.876
-45.113
-45.324
-45.503
-45.645
-45.745
-45.798
-45.799
-45.744
-45.628
-45.447
-45.197
-44.875
-44.478
-44.003
-43.447
-42.81
-42.091
-41.288
-40.403
-39.435
-38.386
-37.257
-36.051
-34.77
-33.419
-32
-30.519
-28.982
-27.392
-25.758
-24.086
-22.384
-20.661
-18.927
-17.19
-15.46
-13.749
-12.067
-10.424
-8.83
-7.295
-5.827
-4.436
-3.133
-1.925
-0.822
0.168
1.037
1.78
2.389
2.86
3.191
3.381
3.429
3.332
3.085
2.684
2.127
1.412
0.541
-0.481
-1.646
-2.944
-4.355
-5.86
-7.438
-9.069
-10.737
-12.427
-14.118
-15.788
-17.407
-18.944
-20.374
-21.677
-22.839
-23.853
-24.723
-25.47
-26.131
-26.746
-27.358
-28.008
-28.735
-29.587
-30.618
-31.877
-33.419
-35.317
-37.616
-40.324
-43.407
-46.718
-50.063
-53.25
-56.047
-58.203
-59.542
-59.944
-59.439
-58.355
-57.132
-56.165
-55.82
-56.4
-58.092
-60.989
-64.891
-68.662
-70.548
-69.039
-62.98
-52.533
-38.716
-21.295
0.907
29.968
68.035
114.644
167.437
222.904
276.726
325.427
364.626
389.304
395.607
380.385
344.398
291.339
224.535
149.073
69.95
-7.781
-76.021
-127.92
-160.363
-172.799
-169.152
-156.064
-137.993
-119.25
-103.849
-92.111
-84.292
-79.332
-73.467
-65.581
-55.941
-45.436
-36.837
-31.373
-28.603
-27.873
-28.05
-28.42
-28.876
-29.298
-29.484
-29.198
-28.372
-27.111
-25.54
-23.833
-22.142
-20.581
-19.355
-18.683
-18.606
-19.038
-19.856
-20.892
-22.026
-23.189
-24.258
-25.089
-25.588
-25.698
-25.405
-24.744
-23.732
-22.373
-20.695
-18.739
-16.559
-14.231
-11.809
-9.327
-6.809
-4.269
-1.72
0.822
3.346
5.848
8.327
10.787
13.228
15.65
18.057
20.462
22.885
25.356
27.9
30.535
33.273
36.124
39.093
42.184
45.399
48.734
52.188
55.762
59.455
63.265
67.187
71.213
75.328
79.516
83.751
88.006
92.256
96.484
100.674
104.82
108.912
112.943
116.906
120.79
124.588
128.293
131.894
135.377
138.738
141.977
145.107
148.153
151.128
154.032
156.854
159.572
162.157
164.576
166.792
168.759
170.441
171.805
172.826
173.492
173.782
173.669
173.115
172.061
170.457
168.278
165.511
162.163
158.26
153.836
148.939
143.634
137.969
131.991
125.739
119.236
112.506
105.577
98.497
91.34
84.187
77.105
70.149
63.355
56.744
50.329
44.114
38.088
32.248
26.596
21.14
15.906
10.932
6.249
1.876
-2.2
-6.013
-9.59
-12.95
-16.103
-19.052
-21.8
-24.349
-26.69
-28.814
-30.713
-32.391
-33.864
-35.166
-36.331
-37.381
-38.32
-39.138
-39.824
-40.379
-40.804
-41.104
-41.28
-41.335
-41.281
-41.137
-40.923
-40.651
-40.328
-39.951
-39.516
-39.028
-38.495
-37.935
-37.362
-36.786
-36.218
-35.668
-35.149
-34.67
-34.236
-33.846
-33.497
-33.189
-32.923
-32.704
-32.531
-32.406
-32.325
-32.285
-32.284
-32.319
-32.387
-32.483
-32.601
-32.738
-32.889
-33.055
-33.231
-33.416
-33.607
-33.801
-33.995
-34.188
-34.377
-34.561
-34.736
-34.902
-35.056
-35.198
-35.326
-35.441
-35.542
-35.628
-35.7
-35.759
-35.804
-35.837
-35.859
-35.871
-35.875
-35.871
-35.862
-35.849
-35.833
-35.815
-35.798
-35.783
-35.771
-35.763
-35.761
-35.765
-35.776
-35.795
-35.821
-35.856
-35.899
-35.949
-36.008
-36.073
-36.146
-36.224
-36.308
-36.395
-36.485
-36.577
-36.669
-36.759
-36.847
-36.93
-37.006
-37.075
-37.135
-37.183
-37.219
-37.24
-37.246
-37.235
-37.206
-37.158
-37.089
-36.998
-36.886
-36.751
-36.594
-36.413
-36.209
-35.983
-35.735
-35.466
-35.176
-34.866
-34.539
-34.194
-33.834
-33.46
-33.074
-32.678
-32.274
-31.863
-31.448
-31.031
-30.614
-30.198
-29.786
-29.381
-28.982
-28.594
-28.217
-27.852
-27.503
-27.169
-26.853
-26.556
-26.279
-26.022
-25.786
-25.573
-25.382
-25.212
-25.065
-24.94
-24.837
-24.754
-24.691
-24.647
-24.622
-24.613
-24.621
-24.642
-24.677
-24.723
-24.778
-24.841
-24.911
-24.986
-25.065
-25.145
-25.226
-25.306
-25.385
-25.46
-25.532
-25.598
-25.659
-25.713
-25.76
-25.799
-25.83
-25.853
-25.868
-25.876
-25.875
-25.867
-25.852
-25.83
-25.802
-25.768
-25.727
-25.682
-25.632
-25.578
-25.519
-25.457
-25.393
-25.325
-25.255
-25.182
-25.106
-25.027
-24.944
-24.856
-24.763
-24.663
-24.555
-24.438
-24.31
-24.169
-24.013
-23.841
-23.649
-23.436
-23.2
-22.938
-22.647
-22.326
-21.972
-21.585
-21.162
-20.703
-20.206
-19.669
-19.094
-18.478
-17.823
-17.129
-16.396
-15.625
-14.819
-13.98
-13.11
-12.213
-11.293
-10.354
-9.402
-8.444
-7.488
-6.54
-5.61
-4.707
-3.84
-3.015
-2.241
-1.525
-0.874
-0.295
0.205
0.619
0.941
1.164
1.283
1.295
1.199
0.997
0.692
0.286
-0.223
-0.837
-1.563
-2.401
-3.355
-4.425
-5.611
-6.911
-8.31
-9.789
-11.331
-12.92
-14.552
-16.222
-17.92
-19.626
-21.311
-22.939
-24.478
-25.898
-27.161
-28.25
-29.18
-29.994
-30.778
-31.628
-32.607
-33.757
-35.119
-36.643
-38.211
-39.694
-40.924
-41.773
-42.202
-42.187
-41.703
-40.875
-39.952
-39.138
-38.645
-38.617
-39.078
-40.091
-41.81
-44.247
-47.276
-50.862
-54.912
-59.244
-63.784
-68.326
-72.256
-74.937
-75.376
-71.966
-63.779
-50.341
-31.608
-8.642
18.525
50.555
87.742
130.904
179.345
231.02
283.576
332.861
373.172
398.221
402.482
383.162
342.375
285.678
218.668
146.328
71.597
-2.999
-72.316
-129.384
-167.47
-182.846
-176.41
-154.57
-125.911
-98.014
-77.194
-64.657
-58.458
-55.917
-52.85
-48.044
-42.475
-37.21
-34.447
-34.666
-36.689
-39.502
-41.659
-42.218
-41.196
-38.725
-35.047
-30.572
-25.67
-20.689
-16.105
-12.363
-9.657
-8.05
-7.502
-7.844
-8.894
-10.465
-12.289
-14.106
-15.761
-17.162
-18.278
-19.115
-19.651
-19.856
-19.712
-19.22
-18.386
-17.217
-15.716
-13.895
-11.786
-9.449
-6.963
-4.393
-1.781
0.846
3.478
6.104
8.709
11.286
13.833
16.352
18.844
21.313
23.757
26.185
28.61
31.056
33.556
36.135
38.808
41.588
44.481
47.491
50.623
53.875
57.243
60.721
64.307
67.998
71.793
75.688
79.675
83.744
87.883
92.081
96.326
100.604
104.902
109.207
113.504
117.78
122.022
126.214
130.342
134.388
138.335
142.165
145.86
149.402
152.774
155.956
158.933
161.688
164.205
166.47
168.468
170.187
171.615
172.742
173.557
174.054
174.224
174.064
173.568
172.736
171.565
170.057
168.215
166.042
163.544
160.729
157.604
154.181
150.47
146.484
142.238
137.746
133.024
128.091
122.965
117.664
112.209
106.621
100.919
95.126
89.262
83.349
77.407
71.458
65.523
59.62
53.77
47.992
42.303
36.72
31.262
25.941
20.773
15.772
10.948
6.313
1.877
-2.353
-6.369
-10.165
-13.737
-17.081
-20.196
-23.081
-25.736
-28.163
-30.364
-32.344
-34.108
-35.661
-37.01
-38.163
-39.129
-39.916
-40.534
-40.994
-41.306
-41.481
-41.529
-41.463
-41.292
-41.029
-40.685
-40.269
-39.794
-39.27
-38.707
-38.114
-37.501
-36.877
-36.25
-35.628
-35.018
-34.428
-33.862
-33.328
-32.829
-32.37
-31.955
-31.586
-31.266
-30.996
-30.777
-30.611
-30.496
-30.431
-30.416
-30.449
-30.528
-30.65
-30.813
-31.013
-31.248
-31.513
-31.806
-32.123
-32.46
-32.813
-33.178
-33.551
-33.93
-34.309
-34.687
-35.058
-35.42
-35.77
-36.105
-36.421
-36.717
-36.99
-37.238
-37.46
-37.653
-37.818
-37.953
-38.057
-38.132
-38.177
-38.193
-38.18
-38.14
-38.073
-37.982
-37.868
-37.732
-37.576
-37.403
-37.214
-37.012
-36.799
-36.576
-36.347
-36.113
-35.876
-35.639
-35.403
-35.171
-34.944
-34.725
-34.515
-34.316
-34.129
-33.955
-33.797
-33.654
-33.527
-33.416
-33.323
-33.247
-33.187
-33.144
-33.116
-33.104
-33.106
-33.121
-33.148
-33.186
-33.234
-33.289
-33.352
-33.42
-33.492
-33.566
-33.642
-33.718
-33.792
-33.863
-33.93
-33.992
-34.047
-34.095
-34.133
-34.161
-34.178
-34.184
-34.177
-34.156
-34.123
-34.075
-34.013
-33.936
-33.845
-33.74
-33.621
-33.487
-33.341
-33.182
-33.01
-32.827
-32.633
-32.429
-32.216
-31.993
-31.762
-31.524
-31.279
-31.027
-30.771
-30.509
-30.244
-29.976
-29.705
-29.433
-29.16
-28.887
-28.616
-28.346
-28.08
-27.818
-27.562
-27.312
-27.07
-26.837
-26.615
-26.404
-26.207
-26.024
-25.856
-25.706
-25.573
-25.461
-25.369
-25.299
-25.252
-25.23
-25.234
-25.264
-25.323
-25.411
-25.529
-25.678
-25.858
-26.07
-26.315
-26.592
-26.902
-27.244
-27.619
-28.024
-28.46
-28.925
-29.416
-29.933
-30.473
-31.033
-31.61
-32.2
-32.801
-33.408
-34.018
-34.627
-35.23
-35.823
-36.402
-36.962
-37.499
-38.007
-38.483
-38.92
-39.316
-39.664
-39.96
-40.201
-40.381
-40.498
-40.546
-40.524
-40.426
-40.252
-39.997
-39.661
-39.24
-38.735
-38.144
-37.469
-36.711
-35.87
-34.95
-33.953
-32.883
-31.745
-30.542
-29.279
-27.962
-26.598
-25.192
-23.752
-22.286
-20.801
-19.307
-17.814
-16.332
-14.87
-13.439
-12.051
-10.716
-9.446
-8.251
-7.143
-6.129
-5.221
-4.426
-3.754
-3.213
-2.806
-2.539
-2.416
-2.44
-2.615
-2.94
-3.409
-4.017
-4.76
-5.632
-6.636
-7.767
-9.021
-10.392
-11.877
-13.471
-15.169
-16.958
-18.819
-20.725
-22.653
-24.586
-26.514
-28.431
-30.323
-32.17
-33.945
-35.619
-37.171
-38.585
-39.826
-40.861
-41.691
-42.342
-42.901
-43.503
-44.254
-45.241
-46.562
-48.265
-50.329
-52.686
-55.131
-57.368
-59.137
-60.147
-60.119
-58.93
-56.587
-53.216
-49.199
-45.012
-41.148
-38.341
-37.308
-38.494
-42.237
-48.607
-57.236
-67.676
-78.839
-88.665
-95.306
-97.427
-94.777
-88.112
-77.207
-59.999
-33.182
5.514
55.643
113.509
173.575
232.493
288.404
339.266
382.233
410.224
415.887
397.083
355.737
299.174
235.842
168.312
97.064
22.712
-52.653
-120.719
-171.779
-200.936
-206.831
-193.448
-169.232
-140.223
-111.971
-89.752
-74.033
-64.559
-59.559
-54.497
-47.983
-40.254
-32.234
-26.668
-24.345
-24.511
-26.401
-28.523
-30.017
-30.758
-30.492
-29.249
-27.267
-24.705
-21.79
-18.839
-16.078
-13.743
-12.13
-11.34
-11.306
-11.894
-12.906
-14.147
-15.497
-16.826
-17.97
-18.833
-19.359
-19.515
-19.321
-18.797
-17.946
-16.786
-15.347
-13.661
-11.78
-9.769
-7.677
-5.542
-3.395
-1.249
0.882
2.983
5.049
7.076
9.067
11.03
12.97
14.888
16.794
18.701
20.633
22.622
24.694
26.869
29.161
31.581
34.139
36.844
39.697
42.698
45.843
49.13
52.557
56.125
59.828
63.66
67.611
71.669
75.823
80.061
84.37
88.738
93.15
97.592
102.051
106.511
110.955
115.366
119.723
124.004
128.19
132.258
136.188
139.959
143.551
146.945
150.122
153.064
155.75
158.159
160.273
162.077
163.559
164.71
165.527
166.012
166.166
165.996
165.506
164.697
163.567
162.11
160.32
158.191
155.725
152.93
149.816
146.391
142.662
138.637
134.314
129.691
124.759
119.509
113.94
108.063
101.903
95.498
88.896
82.152
75.315
68.424
61.516
54.625
47.786
41.037
34.418
27.977
21.767
15.85
10.274
5.074
0.266
-4.154
-8.204
-11.918
-15.323
-18.441
-21.291
-23.885
-26.235
-28.355
-30.261
-31.973
-33.52
-34.943
-36.274
-37.542
-38.76
-39.928
-41.036
-42.063
-42.991
-43.808
-44.505
-45.084
-45.547
-45.9
-46.15
-46.307
-46.375
-46.349
-46.228
-46.012
-45.705
-45.318
-44.867
-44.373
-43.855
-43.33
-42.813
-42.315
-41.842
-41.398
-40.986
-40.604
-40.252
-39.933
-39.648
-39.401
-39.192
-39.02
-38.884
-38.781
-38.705
-38.654
-38.623
-38.607
-38.604
-38.611
-38.626
-38.648
-38.677
-38.71
-38.745
-38.781
-38.814
-38.843
-38.865
-38.879
-38.882
-38.873
-38.851
-38.815
-38.766
-38.703
-38.626
-38.536
-38.433
-38.318
-38.192
-38.055
-37.908
-37.753
-37.592
-37.425
-37.255
-37.083
-36.91
-36.739
-36.571
-36.407
-36.249
-36.098
-35.956
-35.822
-35.7
-35.588
-35.488
-35.401
-35.328
-35.268
-35.221
-35.188
-35.169
-35.162
-35.167
-35.184
-35.211
-35.248
-35.292
-35.345
-35.403
-35.466
-35.532
-35.601
-35.67
-35.739
-35.806
-35.869
-35.927
-35.98
-36.025
-36.063
-36.091
-36.11
-36.119
-36.117
-36.103
-36.079
-36.042
-35.994
-35.935
-35.866
-35.786
-35.699
-35.603
-35.501
-35.395
-35.284
-35.172
-35.059
-34.947
-34.839
-34.734
-34.636
-34.545
-34.464
-34.394
-34.337
-34.295
-34.267
-34.257
-34.265
-34.291
-34.337
-34.403
-34.49
-34.597
-34.726
-34.874
-35.043
-35.231
-35.437
-35.659
-35.896
-36.145
-36.404
-36.671
-36.942
-37.214
-37.485
-37.751
-38.008
-38.252
-38.481
-38.689
-38.873
-39.029
-39.152
-39.238
-39.284
-39.285
-39.237
-39.138
-38.982
-38.769
-38.493
-38.152
-37.744
-37.267
-36.717
-36.095
-35.398
-34.626
-33.781
-32.861
-31.869
-30.806
-29.676
-28.481
-27.224
-25.91
-24.543
-23.129
-21.673
-20.181
-18.66
-17.118
-15.564
-14.007
-12.455
-10.92
-9.41
-7.937
-6.511
-5.141
-3.838
-2.61
-1.466
-0.415
0.533
1.368
2.082
2.667
3.116
3.423
3.581
3.588
3.442
3.144
2.694
2.091
1.33
0.41
-0.671
-1.91
-3.304
-4.846
-6.529
-8.338
-10.254
-12.253
-14.315
-16.417
-18.544
-20.679
-22.799
-24.879
-26.889
-28.8
-30.591
-32.242
-33.734
-35.06
-36.224
-37.246
-38.163
-39.011
-39.828
-40.658
-41.544
-42.542
-43.71
-45.088
-46.726
-48.691
-51.014
-53.697
-56.691
-59.836
-62.959
-65.905
-68.471
-70.43
-71.627
-71.944
-71.428
-70.414
-69.234
-68.125
-67.414
-67.394
-68.225
-70.113
-72.589
-74.157
-73.464
-69.266
-61.182
-50.775
-39.061
-25.825
-9.62
13.951
48.731
95.782
154.303
218.768
281.532
335.958
374.374
392.144
388.133
362.221
318.423
261.175
192.995
116.999
35.06
-48.791
-126.784
-190.931
-233.643
-252.455
-250.212
-231.763
-204.514
-173.525
-142.257
-115.129
-93.183
-76.963
-66.102
-57.042
-48.483
-40.443
-33.224
-28.928
-28.091
-29.74
-32.79
-35.613
-37.175
-37.227
-35.775
-33.116
-29.605
-25.587
-21.474
-17.649
-14.477
-12.286
-11.177
-11.087
-11.856
-13.231
-14.958
-16.838
-18.666
-20.239
-21.431
-22.168
-22.422
-22.215
-21.572
-20.505
-19.039
-17.207
-15.04
-12.588
-9.9
-7.029
-4.037
-0.975
2.121
5.217
8.285
11.303
14.258
17.148
19.98
22.76
25.49
28.178
30.831
33.468
36.112
38.788
41.521
44.333
47.24
50.255
53.389
56.648
60.032
63.536
67.153
70.877
74.707
78.641
82.674
86.797
90.999
95.267
99.584
103.93
108.28
112.605
116.886
121.103
125.244
129.304
133.272
137.14
140.901
144.541
148.048
151.414
154.623
157.667
160.546
163.263
165.834
168.283
170.61
172.811
174.879
176.79
178.523
180.055
181.347
182.374
183.12
183.564
183.694
183.494
182.926
181.949
180.517
178.58
176.116
173.117
169.572
165.495
160.908
155.834
150.327
144.426
138.149
131.523
124.58
117.357
109.927
102.372
94.763
87.182
79.686
72.32
65.139
58.18
51.464
45.012
38.826
32.916
27.322
22.076
17.19
12.671
8.49
4.605
0.993
-2.375
-5.523
-8.466
-11.225
-13.818
-16.243
-18.502
-20.594
-22.527
-24.332
-26.037
-27.652
-29.182
-30.613
-31.922
-33.1
-34.141
-35.034
-35.777
-36.366
-36.804
-37.102
-37.276
-37.335
-37.286
-37.125
-36.848
-36.462
-35.976
-35.407
-34.776
-34.097
-33.385
-32.657
-31.926
-31.203
-30.497
-29.81
-29.142
-28.496
-27.878
-27.292
-26.746
-26.241
-25.779
-25.361
-24.988
-24.657
-24.367
-24.116
-23.901
-23.72
-23.573
-23.458
-23.378
-23.33
-23.315
-23.331
-23.377
-23.451
-23.552
-23.678
-23.826
-23.994
-24.181
-24.386
-24.607
-24.844
-25.094
-25.357
-25.632
-25.917
-26.212
-26.515
-26.826
-27.145
-27.47
-27.802
-28.139
-28.483
-28.832
-29.188
-29.549
-29.915
-30.288
-30.666
-31.05
-31.44
-31.835
-32.236
-32.643
-33.055
-33.472
-33.894
-34.322
-34.755
-35.192
-35.634
-36.08
-36.53
-36.982
-37.437
-37.894
-38.352
-38.809
-39.266
-39.721
-40.174
-40.622
-41.065
-41.501
-41.929
-42.347
-42.752
-43.145
-43.521
-43.88
-44.218
-44.534
-44.825
-45.09
-45.325
-45.529
-45.698
-45.832
-45.927
-45.981
-45.993
-45.958
-45.876
-45.744
-45.561
-45.324
-45.032
-44.682
-44.275
-43.808
-43.281
-42.693
-42.043
-41.331
-40.558
-39.723
-38.828
-37.874
-36.863
-35.797
-34.679
-33.513
-32.302
-31.051
-29.764
-28.445
-27.1
-25.734
-24.355
-22.967
-21.578
-20.195
-18.826
-17.48
-16.166
-14.893
-13.67
-12.507
-11.412
-10.393
-9.457
-8.613
-7.865
-7.221
-6.688
-6.273
-5.981
-5.815
-5.781
-5.88
-6.115
-6.487
-6.989
-7.62
-8.376
-9.258
-10.269
-11.411
-12.681
-14.076
-15.591
-17.22
-18.955
-20.781
-22.674
-24.611
-26.567
-28.526
-30.475
-32.392
-34.254
-36.031
-37.686
-39.192
-40.533
-41.687
-42.636
-43.376
-43.909
-44.257
-44.466
-44.577
-44.632
-44.68
-44.77
-44.95
-45.287
-45.857
-46.725
-47.932
-49.465
-51.234
-53.11
-54.941
-56.547
-57.713
-58.229
-57.935
-56.824
-55.162
-53.354
-51.835
-51.015
-51.244
-52.864
-56.156
-61.043
-66.491
-70.8
-72.255
-69.519
-62.796
-52.902
-39.614
-21.789
3.502
39.227
86.108
142.861
205.39
268.217
325.109
369.111
394.186
395.805
374.179
333.767
281.015
222.327
159.033
90.43
17.279
-56.841
-122.152
-169.021
-193.617
-197.041
-186.651
-170.686
-152.257
-133.101
-113.658
-93.654
-76.17
-62.87
-52.791
-45.46
-38.847
-31.93
-26.163
-22.014
-19.63
-18.948
-18.784
-18.44
-17.841
-16.822
-15.376
-13.64
-11.71
-9.705
-7.851
-6.321
-5.196
-4.634
-4.807
-5.732
-7.327
-9.46
-11.937
-14.592
-17.308
-19.934
-22.285
-24.252
-25.775
-26.835
-27.459
-27.665
-27.456
-26.86
-25.922
-24.687
-23.208
-21.539
-19.716
-17.791
-15.806
-13.795
-11.796
-9.83
-7.906
-6.029
-4.196
-2.397
-0.626
1.129
2.883
4.655
6.464
8.333
10.282
12.334
14.509
16.823
19.293
21.927
24.727
27.691
30.814
34.084
37.491
41.021
44.651
48.364
52.14
55.959
59.811
63.683
67.561
71.432
75.28
79.097
82.883
86.642
90.375
94.086
97.776
101.453
105.138
108.845
112.58
116.345
120.123
123.892
127.633
131.321
134.926
138.407
141.71
144.768
147.533
149.955
151.987
153.578
154.661
155.178
155.092
154.371
153.008
151.004
148.362
145.094
141.23
136.815
131.91
126.593
120.922
114.955
108.751
102.367
95.878
89.354
82.845
76.395
70.037
63.799
57.711
51.797
46.064
40.508
35.119
29.873
24.762
19.783
14.931
10.202
5.59
1.086
-3.306
-7.575
-11.715
-15.718
-19.578
-23.292
-26.846
-30.224
-33.411
-36.388
-39.144
-41.674
-43.973
-46.039
-47.873
-49.477
-50.858
-52.03
-53.001
-53.781
-54.382
-54.811
-55.082
-55.208
-55.204
-55.083
-54.859
-54.544
-54.152
-53.693
-53.18
-52.622
-52.029
-51.409
-50.77
-50.121
-49.47
-48.825
-48.193
-47.581
-46.994
-46.439
-45.92
-45.441
-45.004
-44.61
-44.263
-43.961
-43.706
-43.496
-43.331
-43.209
-43.127
-43.084
-43.077
-43.103
-43.157
-43.237
-43.338
-43.457
-43.589
-43.731
-43.878
-44.026
-44.173
-44.315
-44.447
-44.568
-44.673
-44.76
-44.828
-44.873
-44.894
-44.89
-44.86
-44.803
-44.72
-44.61
-44.476
-44.317
-44.135
-43.933
-43.712
-43.475
-43.224
-42.961
-42.691
-42.416
-42.139
-41.864
-41.595
-41.334
-41.085
-40.853
-40.639
-40.448
-40.282
-40.145
-40.038
-39.965
-39.928
-39.928
-39.967
-40.047
-40.167
-40.329
-40.531
-40.774
-41.057
-41.377
-41.733
-42.122
-42.542
-42.99
-43.462
-43.955
-44.465
-44.987
-45.518
-46.052
-46.584
-47.11
-47.625
-48.122
-48.596
-49.041
-49.453
-49.825
-50.153
-50.431
-50.653
-50.816
-50.914
-50.942
-50.897
-50.776
-50.573
-50.287
-49.916
-49.458
-48.911
-48.276
-47.553
-46.742
-45.846
-44.865
-43.803
-42.663
-41.448
-40.163
-38.812
-37.401
-35.937
-34.425
-32.875
-31.294
-29.692
-28.079
-26.464
-24.859
-23.273
-21.718
-20.203
-18.739
-17.335
-16
-14.744
-13.578
-12.512
-11.555
-10.714
-9.997
-9.411
-8.961
-8.652
-8.483
-8.455
-8.569
-8.828
-9.237
-9.803
-10.525
-11.402
-12.433
-13.611
-14.929
-16.374
-17.923
-19.553
-21.242
-22.973
-24.73
-26.498
-28.254
-29.97
-31.613
-33.153
-34.568
-35.839
-36.948
-37.887
-38.661
-39.291
-39.815
-40.274
-40.712
-41.169
-41.693
-42.338
-43.151
-44.19
-45.534
-47.234
-49.32
-51.768
-54.456
-57.233
-59.956
-62.426
-64.396
-65.655
-66.036
-65.553
-64.508
-63.246
-62.063
-61.323
-61.416
-62.693
-65.421
-69.143
-72.512
-74.236
-73.391
-70.054
-64.871
-57.269
-44.964
-24.288
7.603
50.853
102.47
157.575
212.737
266.17
316.811
362.364
396.686
412.401
404.377
372.053
320.459
256.581
185.177
108.671
28.75
-50.931
-121.811
-173.909
-200.678
-201.067
-182.127
-155.091
-129.581
-111.738
-101.666
-95.244
-88.221
-77.951
-64.806
-51.551
-41.174
-35.225
-33.592
-34.971
-37.698
-40.836
-43.861
-46.371
-48.121
-48.776
-48.192
-46.561
-44.135
-41.153
-37.91
-34.655
-31.649
-29.196
-27.407
-26.227
-25.549
-25.211
-25.053
-24.965
-24.823
-24.486
-23.89
-23.02
-21.884
-20.534
-19.007
-17.323
-15.508
-13.59
-11.588
-9.527
-7.428
-5.309
-3.193
-1.098
0.964
2.986
4.967
6.911
8.826
10.726
12.627
14.541
16.481
18.457
20.479
22.56
24.712
26.947
29.279
31.72
34.284
36.981
39.817
42.793
45.908
49.157
52.531
56.021
59.61
63.283
67.024
70.82
74.663
78.548
82.465
86.402
90.345
94.286
98.226
102.166
106.108
110.051
113.998
117.953
121.938
125.966
130.041
134.16
138.303
142.446
146.566
150.635
154.619
158.475
162.144
165.558
168.666
171.414
173.752
175.626
176.963
177.705
177.811
177.25
176.014
174.106
171.526
168.287
164.421
159.97
154.998
149.58
143.776
137.643
131.241
124.631
117.889
111.087
104.275
97.499
90.793
84.185
77.706
71.382
65.219
59.218
53.369
47.652
42.062
36.599
31.259
26.042
20.941
15.951
11.079
6.334
1.728
-2.729
-7.03
-11.169
-15.131
-18.898
-22.455
-25.781
-28.867
-31.705
-34.291
-36.624
-38.703
-40.531
-42.116
-43.47
-44.605
-45.53
-46.258
-46.797
-47.162
-47.368
-47.429
-47.361
-47.178
-46.893
-46.519
-46.071
-45.558
-44.994
-44.387
-43.747
-43.084
-42.406
-41.724
-41.045
-40.378
-39.731
-39.108
-38.518
-37.966
-37.454
-36.988
-36.568
-36.197
-35.875
-35.603
-35.38
-35.205
-35.076
-34.992
-34.949
-34.944
-34.974
-35.036
-35.126
-35.24
-35.374
-35.524
-35.687
-35.858
-36.034
-36.211
-36.387
-36.557
-36.719
-36.87
-37.008
-37.129
-37.233
-37.317
-37.381
-37.423
-37.443
-37.44
-37.416
-37.371
-37.306
-37.223
-37.123
-37.008
-36.881
-36.744
-36.6
-36.452
-36.302
-36.154
-36.01
-35.873
-35.746
-35.631
-35.532
-35.45
-35.388
-35.347
-35.33
-35.338
-35.372
-35.433
-35.521
-35.637
-35.781
-35.951
-36.149
-36.371
-36.616
-36.883
-37.169
-37.472
-37.787
-38.113
-38.444
-38.778
-39.111
-39.437
-39.754
-40.056
-40.338
-40.598
-40.829
-41.027
-41.188
-41.308
-41.382
-41.406
-41.377
-41.291
-41.145
-40.935
-40.659
-40.316
-39.902
-39.417
-38.859
-38.228
-37.523
-36.746
-35.898
-34.98
-33.994
-32.944
-31.832
-30.664
-29.442
-28.171
-26.857
-25.505
-24.122
-22.714
-21.288
-19.852
-18.413
-16.981
-15.565
-14.172
-12.814
-11.501
-10.241
-9.047
-7.929
-6.895
-5.954
-5.115
-4.386
-3.774
-3.285
-2.925
-2.698
-2.609
-2.661
-2.86
-3.205
-3.693
-4.319
-5.078
-5.964
-6.978
-8.12
-9.384
-10.769
-12.27
-13.883
-15.604
-17.424
-19.323
-21.273
-23.253
-25.24
-27.227
-29.208
-31.173
-33.1
-34.961
-36.725
-38.364
-39.859
-41.183
-42.299
-43.211
-43.956
-44.615
-45.317
-46.17
-47.243
-48.59
-50.258
-52.19
-54.275
-56.379
-58.276
-59.786
-60.79
-61.156
-60.812
-59.881
-58.562
-57.035
-55.594
-54.444
-53.799
-54.067
-55.554
-58.299
-62.273
-67.387
-73.394
-80.191
-87.126
-92.544
-94.922
-92.855
-85.871
-75.394
-62.331
-46.468
-26.375
2.09
42.302
95.006
159.154
229.104
297.424
357.593
401.941
425.913
428.019
407.479
367.783
312.731
244.78
168.078
85.565
2.294
-73.392
-134.72
-175.743
-195.125
-196.86
-185.125
-165.182
-141.111
-114.872
-90.285
-71.158
-59.195
-55.286
-57.17
-59.64
-60.032
-56.911
-50.268
-43.808
-39.394
-37.562
-38.822
-40.965
-42.496
-43.065
-42.062
-40.102
-37.788
-35.107
-32.342
-29.669
-27.207
-25.296
-24.069
-23.438
-23.312
-23.549
-23.995
-24.549
-25.082
-25.426
-25.495
-25.271
-24.753
-23.977
-22.955
-21.663
-20.107
-18.317
-16.327
-14.196
-11.966
-9.664
-7.325
-4.979
-2.647
-0.349
1.911
4.147
6.365
8.574
10.78
12.976
15.162
17.348
19.549
21.788
24.084
26.454
28.912
31.475
34.157
36.968
39.916
43
46.219
49.573
53.058
56.67
60.399
64.23
68.144
72.122
76.146
80.202
84.28
88.375
92.481
96.595
100.709
104.809
108.88
112.907
116.877
120.78
124.612
128.373
132.069
135.708
139.291
142.812
146.25
149.568
152.723
155.66
158.338
160.727
162.802
164.538
165.918
166.925
167.539
167.749
167.525
166.829
165.63
163.903
161.647
158.881
155.636
151.957
147.884
143.445
138.67
133.589
128.22
122.577
116.668
110.486
104.052
97.413
90.616
83.712
76.743
69.736
62.721
55.73
48.788
41.925
35.167
28.532
22.055
15.784
9.775
4.101
-1.192
-6.085
-10.566
-14.632
-18.289
-21.541
-24.41
-26.935
-29.147
-31.068
-32.714
-34.093
-35.229
-36.156
-36.916
-37.563
-38.136
-38.659
-39.156
-39.645
-40.133
-40.624
-41.104
-41.541
-41.915
-42.221
-42.455
-42.624
-42.733
-42.776
-42.75
-42.654
-42.486
-42.249
-41.944
-41.571
-41.137
-40.653
-40.137
-39.617
-39.111
-38.633
-38.191
-37.79
-37.435
-37.129
-36.874
-36.666
-36.503
-36.384
-36.307
-36.275
-36.286
-36.336
-36.421
-36.533
-36.668
-36.82
-36.986
-37.162
-37.343
-37.528
-37.713
-37.899
-38.085
-38.269
-38.449
-38.622
-38.787
-38.942
-39.084
-39.212
-39.325
-39.421
-39.5
-39.563
-39.609
-39.64
-39.656
-39.658
-39.648
-39.627
-39.597
-39.558
-39.513
-39.463
-39.41
-39.356
-39.303
-39.253
-39.207
-39.167
-39.135
-39.113
-39.101
-39.101
-39.114
-39.14
-39.18
-39.236
-39.306
-39.393
-39.496
-39.614
-39.749
-39.898
-40.06
-40.235
-40.42
-40.614
-40.815
-41.02
-41.226
-41.431
-41.632
-41.826
-42.01
-42.182
-42.336
-42.472
-42.584
-42.669
-42.725
-42.748
-42.733
-42.678
-42.58
-42.435
-42.241
-41.995
-41.694
-41.335
-40.917
-40.438
-39.896
-39.29
-38.619
-37.883
-37.083
-36.218
-35.291
-34.303
-33.257
-32.154
-30.998
-29.793
-28.543
-27.251
-25.924
-24.565
-23.181
-21.78
-20.366
-18.948
-17.535
-16.135
-14.756
-13.409
-12.102
-10.847
-9.655
-8.534
-7.493
-6.541
-5.687
-4.938
-4.303
-3.786
-3.394
-3.132
-3.003
-3.013
-3.167
-3.463
-3.898
-4.468
-5.168
-5.997
-6.957
-8.047
-9.266
-10.608
-12.071
-13.652
-15.346
-17.141
-19.014
-20.938
-22.887
-24.842
-26.797
-28.745
-30.672
-32.553
-34.353
-36.036
-37.576
-38.964
-40.175
-41.177
-41.977
-42.611
-43.163
-43.778
-44.571
-45.578
-46.831
-48.345
-50.057
-51.927
-53.862
-55.613
-56.98
-57.867
-58.19
-57.983
-57.407
-56.508
-55.38
-54.313
-53.572
-53.434
-54.235
-56.075
-58.84
-62.571
-67.258
-72.66
-78.484
-83.715
-86.641
-86.049
-81.33
-72.959
-62.213
-48.957
-31.178
-5.521
30.819
77.609
131.229
186.321
238.837
286.81
329.468
364.831
387.809
392.613
375.028
335.33
278.213
209.094
132.985
53.131
-27.262
-102.326
-164.677
-207.39
-226.979
-224.969
-207.738
-183.154
-157.852
-137.053
-121.573
-110.009
-100.579
-89.946
-77.427
-64.234
-51.625
-42.071
-36.453
-33.96
-33.793
-34.752
-35.889
-36.904
-37.464
-37.212
-36.117
-34.319
-31.996
-29.396
-26.785
-24.356
-22.359
-21.107
-20.679
-20.978
-21.842
-23.048
-24.427
-25.877
-27.254
-28.376
-29.112
-29.399
-29.227
-28.639
-27.668
-26.322
-24.622
-22.612
-20.352
-17.912
-15.366
-12.763
-10.133
-7.501
-4.889
-2.318
0.188
2.621
4.987
7.295
9.552
11.765
13.936
16.078
18.217
20.381
22.604
24.912
27.322
29.854
32.521
35.332
38.294
41.404
44.652
48.027
51.517
55.106
58.782
62.531
66.338
70.191
74.074
77.973
81.876
85.768
89.638
93.485
97.307
101.108
104.902
108.7
112.518
116.381
120.299
124.277
128.317
132.406
136.535
140.685
144.83
148.944
152.996
156.94
160.731
164.315
167.619
170.588
173.156
175.251
176.822
177.82
178.2
177.937
177.014
175.418
173.155
170.224
166.629
162.396
157.558
152.158
146.263
139.913
133.158
126.06
118.67
111.045
103.252
95.337
87.344
79.325
71.326
63.408
55.641
48.069
40.731
33.656
26.86
20.386
14.274
8.545
3.221
-1.689
-6.187
-10.267
-13.92
-17.162
-20.014
-22.517
-24.729
-26.686
-28.416
-29.948
-31.305
-32.53
-33.665
-34.736
-35.765
-36.765
-37.746
-38.723
-39.713
-40.711
-41.703
-42.668
-43.571
-44.394
-45.129
-45.762
-46.287
-46.692
-46.965
-47.106
-47.123
-47.023
-46.811
-46.494
-46.074
-45.566
-44.987
-44.359
-43.706
-43.044
-42.386
-41.743
-41.127
-40.546
-40.006
-39.509
-39.053
-38.637
-38.261
-37.926
-37.634
-37.383
-37.168
-36.988
-36.84
-36.719
-36.626
-36.556
-36.508
-36.48
-36.472
-36.483
-36.513
-36.562
-36.628
-36.71
-36.806
-36.914
-37.033
-37.16
-37.294
-37.432
-37.573
-37.717
-37.862
-38.007
-38.153
-38.298
-38.443
-38.588
-38.733
-38.878
-39.023
-39.17
-39.318
-39.469
-39.622
-39.779
-39.94
-40.105
-40.275
-40.451
-40.634
-40.823
-41.018
-41.222
-41.433
-41.653
-41.881
-42.118
-42.366
-42.623
-42.89
-43.168
-43.455
-43.753
-44.06
-44.377
-44.701
-45.032
-45.369
-45.71
-46.055
-46.4
-46.744
-47.086
-47.422
-47.75
-48.069
-48.374
-48.665
-48.937
-49.189
-49.417
-49.618
-49.791
-49.931
-50.037
-50.105
-50.132
-50.116
-50.053
-49.941
-49.778
-49.56
-49.286
-48.954
-48.561
-48.106
-47.588
-47.006
-46.359
-45.646
-44.867
-44.024
-43.117
-42.148
-41.119
-40.032
-38.89
-37.697
-36.455
-35.17
-33.844
-32.484
-31.093
-29.679
-28.246
-26.801
-25.353
-23.907
-22.472
-21.057
-19.671
-18.324
-17.025
-15.784
-14.613
-13.521
-12.516
-11.608
-10.805
-10.112
-9.538
-9.088
-8.767
-8.577
-8.525
-8.611
-8.838
-9.204
-9.704
-10.332
-11.084
-11.954
-12.943
-14.051
-15.273
-16.608
-18.053
-19.604
-21.257
-22.999
-24.807
-26.656
-28.527
-30.404
-32.284
-34.159
-36.008
-37.808
-39.525
-41.125
-42.591
-43.892
-44.978
-45.846
-46.519
-47.057
-47.597
-48.244
-49.055
-50.127
-51.524
-53.203
-55.08
-56.979
-58.62
-59.841
-60.509
-60.399
-59.408
-57.612
-55.177
-52.448
-49.851
-47.623
-46.068
-45.718
-46.952
-49.914
-54.596
-60.735
-67.988
-76.14
-84.356
-90.985
-94.529
-93.961
-89.51
-82.184
-71.755
-56.304
-32.096
3.843
51.106
106.427
163.945
219.02
270.571
318.305
361.92
398.096
419.744
420.589
397.005
349.862
284.048
205.455
120.299
34.706
-44.623
-110.234
-156.12
-179.575
-181.549
-167.223
-143.972
-118.382
-96.635
-82.267
-75.27
-74.109
-75.358
-75.446
-72.497
-66.474
-58.348
-49.623
-42.463
-37.515
-35.026
-35.301
-36.775
-38.43
-39.8
-39.979
-39.242
-38.012
-36.156
-33.831
-31.204
-28.359
-25.669
-23.541
-22.078
-21.264
-21.041
-21.239
-21.703
-22.325
-22.941
-23.377
-23.555
-23.441
-23.037
-22.384
-21.501
-20.379
-19.012
-17.402
-15.563
-13.519
-11.31
-8.98
-6.571
-4.117
-1.646
0.821
3.274
5.709
8.136
10.572
13.026
15.5
17.988
20.484
22.991
25.52
28.089
30.718
33.426
36.229
39.144
42.19
45.375
48.701
52.161
55.743
59.435
63.229
67.114
71.074
75.091
79.149
83.232
87.331
91.436
95.535
99.612
103.648
107.633
111.568
115.454
119.293
123.085
126.831
130.539
134.231
137.922
141.616
145.307
148.977
152.606
156.175
159.666
163.051
166.295
169.352
172.173
174.723
176.965
178.858
180.348
181.365
181.853
181.77
181.089
179.793
177.865
175.292
172.073
168.225
163.779
158.77
153.234
147.195
140.687
133.754
126.464
118.895
111.122
103.21
95.224
87.23
79.313
71.541
63.97
56.638
49.573
42.809
36.389
30.355
24.74
19.561
14.814
10.492
6.589
3.091
-0.027
-2.804
-5.299
-7.559
-9.611
-11.477
-13.176
-14.734
-16.193
-17.584
-18.928
-20.242
-21.532
-22.807
-24.08
-25.348
-26.6
-27.812
-28.949
-29.988
-30.923
-31.746
-32.456
-33.046
-33.504
-33.829
-34.027
-34.105
-34.07
-33.929
-33.684
-33.347
-32.937
-32.477
-31.992
-31.501
-31.017
-30.551
-30.113
-29.712
-29.357
-29.051
-28.792
-28.58
-28.417
-28.304
-28.242
-28.231
-28.267
-28.345
-28.463
-28.615
-28.799
-29.012
-29.25
-29.51
-29.789
-30.087
-30.402
-30.732
-31.075
-31.427
-31.786
-32.149
-32.513
-32.876
-33.233
-33.582
-33.921
-34.249
-34.563
-34.863
-35.146
-35.413
-35.662
-35.893
-36.107
-36.302
-36.479
-36.638
-36.781
-36.907
-37.018
-37.115
-37.198
-37.269
-37.328
-37.378
-37.418
-37.451
-37.476
-37.496
-37.511
-37.523
-37.532
-37.54
-37.547
-37.555
-37.564
-37.576
-37.59
-37.607
-37.629
-37.654
-37.684
-37.718
-37.757
-37.801
-37.85
-37.903
-37.962
-38.025
-38.094
-38.168
-38.247
-38.332
-38.421
-38.516
-38.617
-38.723
-38.836
-38.954
-39.078
-39.209
-39.346
-39.49
-39.642
-39.801
-39.967
-40.142
-40.325
-40.516
-40.716
-40.925
-41.142
-41.367
-41.6
-41.841
-42.09
-42.344
-42.603
-42.867
-43.134
-43.402
-43.669
-43.934
-44.193
-44.446
-44.689
-44.919
-45.134
-45.33
-45.505
-45.655
-45.777
-45.869
-45.925
-45.944
-45.922
-45.855
-45.74
-45.574
-45.352
-45.073
-44.733
-44.329
-43.859
-43.322
-42.714
-42.035
-41.284
-40.46
-39.562
-38.591
-37.547
-36.433
-35.248
-33.997
-32.682
-31.307
-29.875
-28.392
-26.861
-25.289
-23.681
-22.043
-20.382
-18.704
-17.018
-15.331
-13.651
-11.988
-10.353
-8.755
-7.205
-5.713
-4.29
-2.946
-1.692
-0.539
0.504
1.429
2.228
2.893
3.414
3.786
4.003
4.063
3.963
3.701
3.275
2.683
1.928
1.016
-0.049
-1.264
-2.631
-4.151
-5.818
-7.627
-9.57
-11.637
-13.823
-16.114
-18.488
-20.922
-23.389
-25.858
-28.313
-30.735
-33.104
-35.403
-37.603
-39.667
-41.57
-43.286
-44.794
-46.099
-47.197
-48.075
-48.778
-49.373
-49.968
-50.737
-51.781
-53.114
-54.762
-56.743
-59.033
-61.597
-64.227
-66.502
-68.143
-69.024
-69.088
-68.39
-66.983
-64.893
-62.448
-60.341
-59.179
-59.428
-61.345
-64.84
-69.812
-76.18
-83.468
-90.711
-96.334
-98.304
-95.072
-85.788
-70.803
-51.24
-27.122
2.226
38.305
82.777
134.757
191.879
251.036
308.06
359.21
399.787
423.752
426.015
403.547
357.255
291.527
212.216
125.882
38.778
-42.208
-109.249
-156.096
-179.528
-180.409
-165.039
-141.479
-116.855
-97.449
-84.615
-76.704
-71.533
-64.949
-55.633
-44.847
-34.105
-26.308
-22.676
-22.412
-24.559
-27.765
-31.073
-34.19
-36.778
-38.445
-39.032
-38.576
-37.228
-35.202
-32.75
-30.09
-27.497
-25.34
-23.794
-22.849
-22.431
-22.381
-22.538
-22.804
-23.044
-23.089
-22.855
-22.311
-21.458
-20.351
-19.03
-17.51
-15.818
-13.987
-12.037
-9.996
-7.884
-5.717
-3.519
-1.31
0.9
3.101
5.29
7.471
9.648
11.833
14.041
16.279
18.558
20.882
23.258
25.696
28.204
30.793
33.473
36.251
39.135
42.133
45.247
48.48
51.833
55.301
58.882
62.569
66.359
70.247
74.225
78.288
82.428
86.634
90.899
95.212
99.562
103.935
108.316
112.69
117.038
121.345
125.591
129.756
133.821
137.766
141.569
145.214
148.682
151.953
155.006
157.819
160.371
162.647
164.634
166.32
167.695
168.753
169.493
169.921
170.044
169.867
169.393
168.613
167.525
166.127
164.42
162.406
160.084
157.441
154.471
151.171
147.538
143.572
139.258
134.57
129.491
124.014
118.143
111.909
105.336
98.453
91.297
83.912
76.356
68.706
61.025
53.364
45.78
38.324
31.063
24.086
17.464
11.249
5.481
0.177
-4.65
-8.985
-12.836
-16.227
-19.195
-21.801
-24.088
-26.083
-27.819
-29.324
-30.642
-31.833
-32.943
-34
-35.029
-36.042
-37.054
-38.078
-39.114
-40.144
-41.142
-42.073
-42.915
-43.66
-44.302
-44.834
-45.248
-45.53
-45.673
-45.686
-45.572
-45.337
-44.989
-44.529
-43.971
-43.337
-42.649
-41.933
-41.208
-40.486
-39.777
-39.093
-38.439
-37.825
-37.254
-36.722
-36.232
-35.784
-35.38
-35.023
-34.712
-34.444
-34.216
-34.024
-33.866
-33.74
-33.644
-33.576
-33.533
-33.515
-33.522
-33.554
-33.611
-33.691
-33.792
-33.913
-34.051
-34.204
-34.371
-34.55
-34.737
-34.932
-35.134
-35.341
-35.552
-35.767
-35.985
-36.205
-36.426
-36.647
-36.869
-37.09
-37.31
-37.529
-37.745
-37.959
-38.171
-38.379
-38.584
-38.784
-38.98
-39.171
-39.356
-39.534
-39.706
-39.869
-40.024
-40.171
-40.308
-40.436
-40.554
-40.661
-40.758
-40.843
-40.917
-40.979
-41.028
-41.064
-41.087
-41.096
-41.091
-41.073
-41.04
-40.993
-40.933
-40.86
-40.773
-40.674
-40.564
-40.442
-40.31
-40.168
-40.019
-39.862
-39.699
-39.531
-39.36
-39.187
-39.014
-38.842
-38.673
-38.508
-38.349
-38.198
-38.057
-37.926
-37.808
-37.705
-37.618
-37.548
-37.496
-37.465
-37.455
-37.467
-37.501
-37.559
-37.641
-37.746
-37.875
-38.028
-38.204
-38.402
-38.623
-38.864
-39.125
-39.404
-39.7
-40.012
-40.336
-40.673
-41.019
-41.372
-41.73
-42.09
-42.451
-42.808
-43.16
-43.503
-43.835
-44.153
-44.454
-44.735
-44.994
-45.229
-45.436
-45.613
-45.759
-45.872
-45.95
-45.991
-45.995
-45.961
-45.889
-45.777
-45.626
-45.436
-45.208
-44.942
-44.639
-44.301
-43.928
-43.524
-43.088
-42.624
-42.134
-41.621
-41.086
-40.534
-39.966
-39.387
-38.799
-38.206
-37.611
-37.017
-36.428
-35.847
-35.276
-34.72
-34.181
-33.661
-33.163
-32.689
-32.24
-31.82
-31.428
-31.066
-30.735
-30.436
-30.168
-29.932
-29.727
-29.553
-29.409
-29.294
-29.207
-29.146
-29.109
-29.095
-29.101
-29.125
-29.164
-29.217
-29.279
-29.35
-29.425
-29.502
-29.579
-29.653
-29.722
-29.783
-29.835
-29.875
-29.902
-29.915
-29.912
-29.893
-29.856
-29.802
-29.73
-29.64
-29.532
-29.407
-29.267
-29.111
-28.941
-28.759
-28.565
-28.362
-28.151
-27.935
-27.715
-27.493
-27.272
-27.053
-26.84
-26.633
-26.436
-26.249
-26.074
-25.91
-25.761
-25.627
-25.508
-25.405
-25.318
-25.246
-25.189
-25.146
-25.113
-25.09
-25.072
-25.056
-25.038
-25.018
-24.993
-24.96
-24.912
-24.845
-24.75
-24.623
-24.458
-24.25
-23.991
-23.675
-23.3
-22.862
-22.361
-21.795
-21.162
-20.453
-19.662
-18.786
-17.826
-16.794
-15.7
-14.552
-13.346
-12.078
-10.747
-9.358
-7.923
-6.441
-4.89
-3.266
-1.607
0.01
1.497
2.822
4.04
5.222
6.384
7.548
8.793
10.291
12.253
14.761
17.686
20.787
23.899
26.907
29.664
31.926
33.368
33.818
33.383
32.36
30.979
29.376
27.665
26.005
24.648
23.758
23.276
22.976
22.664
22.239
21.656
20.884
19.83
18.416
16.666
14.691
12.605
10.477
8.328
6.148
3.943
1.744
-0.423
-2.546
-4.609
-6.597
-8.493
-10.248
-11.805
-13.158
-14.332
-15.412
-16.535
-17.802
-19.277
-21.044
-23.156
-25.59
-28.277
-31.002
-33.441
-35.35
-36.501
-36.68
-35.802
-33.888
-31.068
-27.746
-24.439
-21.6
-19.762
-19.443
-20.978
-24.626
-30.369
-37.714
-46.079
-54.849
-63.023
-69.511
-72.835
-71.028
-63.047
-48.587
-27.996
-2.651
27.433
62.971
104.204
151.671
203.762
257.446
310.304
359.061
399.799
428.4
439.759
429.538
397.617
346.707
281.084
206.933
128.655
50.479
-21.268
-80.563
-121.86
-141.959
-141.934
-127.155
-104.752
-81.753
-64.783
-55.645
-52.738
-53.062
-51.241
-45.059
-35.563
-24.634
-15.647
-10.164
-7.605
-7.15
-7.693
-8.584
-9.66
-10.619
-11.069
-10.771
-9.689
-7.897
-5.496
-2.642
0.435
3.402
5.844
7.525
8.418
8.586
8.17
7.319
6.188
4.96
3.844
2.97
2.384
2.091
2.065
2.294
2.788
3.555
4.585
5.87
7.404
9.166
11.134
13.272
15.516
17.818
20.145
22.474
24.8
27.123
29.442
31.76
34.083
36.407
38.729
41.05
43.367
45.685
48.017
50.379
52.796
55.289
57.876
60.566
63.366
66.276
69.297
72.426
75.656
78.983
82.402
85.909
89.502
93.176
96.921
100.728
104.585
108.478
112.393
116.316
120.232
124.125
127.983
131.789
135.53
139.192
142.758
146.212
149.539
152.719
155.738
158.579
161.224
163.658
165.867
167.836
169.552
171.004
172.181
173.072
173.67
173.967
173.956
173.634
172.998
172.044
170.773
169.186
167.285
165.075
162.562
159.752
156.655
153.279
149.637
145.741
141.604
137.241
132.668
127.9
122.956
117.853
112.61
107.247
101.783
96.239
90.633
84.986
79.318
73.647
67.993
62.375
56.81
51.316
45.91
40.607
35.423
30.371
25.465
20.717
16.139
11.738
7.526
3.509
-0.307
-3.917
-7.315
-10.501
-13.471
-16.226
-18.767
-21.094
-23.211
-25.121
-26.83
-28.343
-29.666
-30.806
-31.772
-32.572
-33.214
-33.707
-34.062
-34.287
-34.394
-34.392
-34.291
-34.101
-33.832
-33.495
-33.099
-32.654
-32.168
-31.65
-31.109
-30.552
-29.987
-29.422
-28.861
-28.311
-27.778
-27.266
-26.78
-26.322
-25.896
-25.504
-25.149
-24.831
-24.551
-24.309
-24.106
-23.941
-23.813
-23.72
-23.661
-23.634
-23.637
-23.667
-23.723
-23.801
-23.9
-24.015
-24.145
-24.286
-24.437
-24.594
-24.754
-24.916
-25.078
-25.236
-25.39
-25.538
-25.677
-25.807
-25.927
-26.036
-26.133
-26.218
-26.292
-26.353
-26.404
-26.444
-26.475
-26.498
-26.513
-26.523
-26.53
-26.534
-26.539
-26.545
-26.555
-26.571
-26.596
-26.63
-26.677
-26.738
-26.815
-26.91
-27.025
-27.161
-27.32
-27.504
-27.714
-27.95
-28.213
-28.506
-28.827
-29.177
-29.557
-29.967
-30.405
-30.871
-31.365
-31.886
-32.432
-33.002
-33.594
-34.206
-34.837
-35.485
-36.146
-36.82
-37.503
-38.192
-38.886
-39.582
-40.277
-40.968
-41.654
-42.331
-42.996
-43.648
-44.284
-44.902
-45.499
-46.074
-46.625
-47.149
-47.644
-48.111
-48.546
-48.949
-49.32
-49.657
-49.959
-50.227
-50.461
-50.659
-50.824
-50.955
-51.052
-51.118
-51.152
-51.156
-51.13
-51.078
-50.999
-50.896
-50.771
-50.624
-50.459
-50.276
-50.077
-49.866
-49.642
-49.409
-49.167
-48.92
-48.668
-48.413
-48.157
-47.902
-47.649
-47.399
-47.153
-46.914
-46.681
-46.455
-46.238
-46.03
-45.832
-45.643
-45.465
-45.298
-45.14
-44.994
-44.857
-44.731
-44.614
-44.506
-44.407
-44.317
-44.234
-44.159
-44.09
-44.028
-43.971
-43.919
-43.872
-43.829
-43.79
-43.755
-43.723
-43.695
-43.67
-43.648
-43.63
-43.615
-43.605
-43.599
-43.598
-43.602
-43.612
-43.628
-43.652
-43.683
-43.723
-43.773
-43.833
-43.903
-43.986
-44.081
-44.189
-44.311
-44.448
-44.601
-44.769
-44.954
-45.155
-45.373
-45.608
-45.858
-46.124
-46.405
-46.7
-47.007
-47.326
-47.654
-47.99
-48.331
-48.675
-49.02
-49.363
-49.7
-50.028
-50.345
-50.647
-50.931
-51.193
-51.43
-51.637
-51.813
-51.952
-52.052
-52.108
-52.118
-52.076
-51.981
-51.827
-51.613
-51.335
-50.991
-50.579
-50.096
-49.541
-48.913
-48.211
-47.435
-46.584
-45.66
-44.663
-43.596
-42.46
-41.258
-39.994
-38.672
-37.297
-35.873
-34.404
-32.898
-31.359
-29.794
-28.209
-26.612
-25.01
-23.411
-21.823
-20.258
-18.725
-17.233
-15.793
-14.415
-13.108
-11.884
-10.753
-9.721
-8.798
-7.991
-7.308
-6.756
-6.343
-6.074
-5.952
-5.98
-6.16
-6.496
-6.986
-7.629
-8.421
-9.356
-10.433
-11.655
-13.022
-14.531
-16.177
-17.953
-19.852
-21.864
-23.978
-26.17
-28.419
-30.699
-32.988
-35.267
-37.515
-39.715
-41.841
-43.87
-45.769
-47.512
-49.075
-50.443
-51.612
-52.595
-53.401
-54.038
-54.56
-55.057
-55.623
-56.366
-57.324
-58.463
-59.822
-61.49
-63.46
-65.626
-67.784
-69.633
-71.05
-72.087
-72.67
-72.639
-71.938
-70.666
-69.217
-68.182
-67.873
-68.382
-69.897
-72.612
-76.712
-81.734
-86.224
-88.679
-87.842
-83.963
-78.665
-72.012
-62.787
-47.422
-20.76
18.383
68.202
123.942
178.694
229.58
275.457
314.936
346.16
363.177
360.307
335.91
291.916
234.536
169.617
100.181
28.838
-41.552
-105.221
-154.802
-186.365
-199.73
-199.154
-190.495
-176.408
-158.254
-136.86
-113.739
-92.831
-76.94
-66.422
-59.665
-53.91
-47.737
-41.564
-36.874
-34.734
-35.082
-37.041
-39.207
-40.623
-40.911
-39.991
-38.11
-35.541
-32.477
-29.186
-25.98
-23.156
-21.01
-19.67
-19.054
-19.028
-19.413
-20.027
-20.738
-21.407
-21.863
-22.009
-21.798
-21.201
-20.24
-18.941
-17.303
-15.358
-13.15
-10.725
-8.149
-5.484
-2.766
-0.036
2.68
5.372
8.021
10.62
13.167
15.652
18.074
20.437
22.739
24.985
27.189
29.367
31.549
33.764
36.035
38.383
40.823
43.364
46.015
48.78
51.66
54.659
57.782
61.031
64.408
67.913
71.539
75.281
79.125
83.054
87.044
91.071
95.116
99.168
103.219
107.263
111.29
115.293
119.26
123.187
127.073
130.913
134.698
138.42
142.077
145.678
149.247
152.802
156.346
159.867
163.34
166.741
170.041
173.209
176.209
178.987
181.493
183.689
185.548
187.044
188.151
188.815
188.969
188.557
187.543
185.914
183.678
180.842
177.426
173.458
168.98
164.058
158.758
153.12
147.176
140.953
134.478
127.814
121.05
114.255
107.491
100.801
94.21
87.751
81.448
75.314
69.349
63.536
57.858
52.322
46.953
41.775
36.82
32.085
27.542
23.174
18.972
14.93
11.054
7.341
3.784
0.387
-2.835
-5.863
-8.676
-11.273
-13.67
-15.882
-17.933
-19.825
-21.545
-23.087
-24.453
-25.641
-26.661
-27.512
-28.192
-28.706
-29.072
-29.304
-29.423
-29.437
-29.348
-29.16
-28.874
-28.499
-28.052
-27.546
-26.991
-26.398
-25.778
-25.141
-24.502
-23.87
-23.248
-22.639
-22.045
-21.472
-20.925
-20.41
-19.929
-19.486
-19.081
-18.713
-18.386
-18.098
-17.849
-17.638
-17.461
-17.319
-17.211
-17.136
-17.092
-17.079
-17.094
-17.135
-17.199
-17.286
-17.391
-17.512
-17.646
-17.791
-17.945
-18.104
-18.268
-18.433
-18.598
-18.76
-18.918
-19.07
-19.215
-19.351
-19.478
-19.595
-19.7
-19.794
-19.876
-19.945
-20.002
-20.047
-20.079
-20.098
-20.106
-20.102
-20.087
-20.062
-20.028
-19.986
-19.936
-19.88
-19.819
-19.755
-19.688
-19.62
-19.552
-19.485
-19.422
-19.362
-19.308
-19.259
-19.219
-19.186
-19.163
-19.149
-19.147
-19.156
-19.176
-19.209
-19.255
-19.313
-19.385
-19.471
-19.57
-19.682
-19.808
-19.947
-20.098
-20.262
-20.436
-20.622
-20.817
-21.021
-21.233
-21.452
-21.677
-21.906
-22.138
-22.372
-22.606
-22.84
-23.071
-23.299
-23.522
-23.738
-23.946
-24.145
-24.334
-24.512
-24.677
-24.829
-24.967
-25.089
-25.196
-25.285
-25.357
-25.412
-25.448
-25.466
-25.465
-25.447
-25.41
-25.355
-25.284
-25.196
-25.092
-24.973
-24.84
-24.694
-24.537
-24.371
-24.196
-24.014
-23.828
-23.639
-23.449
-23.26
-23.074
-22.893
-22.719
-22.554
-22.4
-22.259
-22.132
-22.022
-21.93
-21.857
-21.806
-21.776
-21.771
-21.79
-21.834
-21.904
-22.001
-22.123
-22.272
-22.447
-22.647
-22.872
-23.12
-23.39
-23.68
-23.988
-24.312
-24.648
-24.994
-25.347
-25.704
-26.059
-26.411
-26.755
-27.087
-27.403
-27.7
-27.971
-28.215
-28.425
-28.598
-28.729
-28.814
-28.849
-28.831
-28.755
-28.618
-28.417
-28.149
-27.811
-27.4
-26.916
-26.356
-25.719
-25.005
-24.213
-23.345
-22.401
-21.383
-20.294
-19.137
-17.915
-16.632
-15.294
-13.904
-12.47
-10.996
-9.49
-7.958
-6.409
-4.85
-3.29
-1.739
-0.207
1.295
2.758
4.17
5.521
6.8
7.997
9.103
10.109
11.007
11.789
12.445
12.967
13.349
13.584
13.668
13.598
13.368
12.979
12.433
11.731
10.877
9.871
8.708
7.386
5.906
4.273
2.491
0.57
-1.481
-3.647
-5.904
-8.228
-10.594
-12.98
-15.371
-17.75
-20.092
-22.368
-24.541
-26.576
-28.448
-30.138
-31.627
-32.911
-33.992
-34.887
-35.637
-36.285
-36.872
-37.442
-38.037
-38.707
-39.503
-40.485
-41.739
-43.324
-45.259
-47.515
-49.966
-52.433
-54.747
-56.699
-58.034
-58.577
-58.218
-57
-55.284
-53.548
-52.222
-51.714
-52.367
-54.374
-57.817
-62.472
-67.141
-69.982
-69.396
-64.116
-54.177
-40.504
-22.75
0.437
31.148
71.32
120.089
174.486
230.676
284.763
334.054
374.997
402.828
412.696
400.08
364.786
310.446
241.508
164.168
83.832
5.184
-64.497
-118.418
-152.854
-166.321
-162.023
-147.034
-126.686
-106.106
-89.813
-77.777
-69.778
-64.524
-58.187
-50.068
-40.808
-31.412
-24.675
-21.559
-21.309
-23.162
-25.869
-28.547
-30.998
-32.949
-34.047
-34.187
-33.426
-31.874
-29.727
-27.23
-24.565
-21.98
-19.804
-18.168
-17.054
-16.397
-16.046
-15.858
-15.749
-15.598
-15.259
-14.666
-13.795
-12.655
-11.302
-9.772
-8.085
-6.268
-4.355
-2.367
-0.331
1.73
3.803
5.865
7.9
9.898
11.853
13.764
15.635
17.471
19.285
21.089
22.893
24.705
26.533
28.383
30.267
32.195
34.182
36.238
38.372
40.595
42.914
45.334
47.861
50.497
53.239
56.086
59.04
62.101
65.275
68.562
71.955
75.445
79.02
82.664
86.368
90.112
93.877
97.643
101.398
105.134
108.851
112.542
116.196
119.794
123.308
126.722
130.025
133.209
136.267
139.194
141.982
144.633
147.16
149.562
151.824
153.916
155.788
157.403
158.741
159.782
160.522
160.945
161.03
160.761
160.126
159.11
157.699
155.87
153.58
150.813
147.578
143.9
139.836
135.429
130.707
125.702
120.44
114.95
109.271
103.43
97.447
91.352
85.177
78.967
72.785
66.672
60.651
54.731
48.903
43.165
37.526
31.99
26.564
21.251
16.058
10.997
6.088
1.346
-3.223
-7.62
-11.855
-15.931
-19.843
-23.58
-27.13
-30.48
-33.627
-36.564
-39.284
-41.784
-44.065
-46.132
-47.997
-49.67
-51.159
-52.469
-53.606
-54.577
-55.391
-56.061
-56.595
-57.005
-57.302
-57.497
-57.603
-57.632
-57.593
-57.495
-57.346
-57.152
-56.921
-56.661
-56.379
-56.08
-55.771
-55.457
-55.145
-54.838
-54.543
-54.26
-53.994
-53.747
-53.519
-53.313
-53.129
-52.968
-52.828
-52.71
-52.612
-52.533
-52.471
-52.424
-52.391
-52.369
-52.355
-52.348
-52.344
-52.342
-52.339
-52.332
-52.32
-52.301
-52.272
-52.232
-52.181
-52.116
-52.037
-51.943
-51.834
-51.708
-51.566
-51.409
-51.236
-51.047
-50.845
-50.629
-50.401
-50.162
-49.914
-49.658
-49.397
-49.132
-48.865
-48.599
-48.336
-48.077
-47.826
-47.584
-47.353
-47.136
-46.934
-46.749
-46.583
-46.438
-46.314
-46.213
-46.136
-46.084
-46.056
-46.053
-46.075
-46.122
-46.193
-46.287
-46.405
-46.544
-46.704
-46.883
-47.08
-47.293
-47.521
-47.76
-48.011
-48.269
-48.533
-48.8
-49.069
-49.337
-49.601
-49.86
-50.11
-50.349
-50.576
-50.788
-50.982
-51.158
-51.312
-51.444
-51.551
-51.633
-51.689
-51.717
-51.717
-51.689
-51.633
-51.547
-51.432
-51.289
-51.118
-50.919
-50.693
-50.442
-50.166
-49.867
-49.546
-49.206
-48.847
-48.472
-48.082
-47.68
-47.268
-46.847
-46.421
-45.992
-45.562
-45.133
-44.708
-44.289
-43.879
-43.479
-43.091
-42.718
-42.361
-42.022
-41.702
-41.402
-41.125
-40.871
-40.642
-40.437
-40.257
-40.103
-39.975
-39.872
-39.795
-39.743
-39.714
-39.708
-39.724
-39.76
-39.814
-39.884
-39.968
-40.063
-40.166
-40.275
-40.386
-40.496
-40.601
-40.698
-40.783
-40.854
-40.905
-40.933
-40.935
-40.907
-40.845
-40.746
-40.605
-40.419
-40.184
-39.897
-39.555
-39.155
-38.693
-38.169
-37.579
-36.921
-36.194
-35.397
-34.528
-33.589
-32.578
-31.497
-30.347
-29.13
-27.848
-26.504
-25.102
-23.646
-22.139
-20.587
-18.994
-17.367
-15.711
-14.033
-12.34
-10.639
-8.94
-7.25
-5.58
-3.938
-2.334
-0.779
0.715
2.138
3.479
4.728
5.877
6.917
7.839
8.636
9.299
9.825
10.206
10.439
10.519
10.44
10.201
9.808
9.263
8.572
7.737
6.757
5.63
4.362
2.953
1.41
-0.263
-2.062
-3.974
-5.977
-8.045
-10.15
-12.275
-14.41
-16.55
-18.681
-20.779
-22.808
-24.732
-26.523
-28.166
-29.642
-30.92
-32.007
-32.943
-33.798
-34.702
-35.762
-37.01
-38.474
-40.174
-42.031
-43.982
-45.971
-47.797
-49.304
-50.451
-51.124
-51.295
-51.139
-50.718
-50.04
-49.315
-48.661
-48.185
-48.29
-49.206
-50.851
-53.335
-56.775
-61.074
-66.232
-71.531
-75.256
-76.067
-73.224
-67.124
-59.046
-48.836
-34.466
-12.319
21.025
65.959
120.073
178.902
237.718
293.2
341.645
378.429
398.476
397.325
374.448
333.367
279.394
217.519
150.011
77.893
3.765
-67.206
-127.042
-168.508
-188.301
-187.209
-171.138
-147.788
-123.853
-105.381
-93.965
-88.097
-85.247
-80.964
-73.425
-63.364
-52.196
-42.716
-36.26
-32.476
-30.733
-29.953
-29.527
-29.466
-29.716
-30.187
-30.697
-30.962
-30.882
-30.485
-29.816
-28.937
-27.918
-26.844
-25.85
-25.119
-24.71
-24.581
-24.663
-24.861
-25.1
-25.318
-25.414
-25.251
-24.742
-23.858
-22.603
-21.022
-19.158
-17.047
-14.75
-12.332
-9.851
-7.351
-4.86
-2.388
0.061
2.481
4.871
7.223
9.529
11.788
14
16.169
18.307
20.425
22.547
24.695
26.888
29.147
31.485
33.913
36.44
39.071
41.803
44.641
47.586
50.643
53.818
57.113
60.524
64.046
67.67
71.385
75.18
79.036
82.93
86.84
90.745
94.632
98.493
102.321
106.104
109.83
113.484
117.059
120.559
123.979
127.314
130.561
133.715
136.786
139.796
142.76
145.681
148.556
151.362
154.084
156.708
159.211
161.57
163.75
165.702
167.392
168.795
169.882
170.626
170.981
170.885
170.292
169.172
167.504
165.278
162.485
159.109
155.153
150.636
145.587
140.044
134.04
127.593
120.736
113.509
105.966
98.188
90.24
82.179
74.067
65.969
57.96
50.123
42.523
35.205
28.214
21.586
15.365
9.596
4.31
-0.476
-4.755
-8.538
-11.834
-14.652
-17.018
-18.971
-20.564
-21.866
-22.931
-23.797
-24.507
-25.103
-25.627
-26.121
-26.615
-27.126
-27.668
-28.254
-28.891
-29.587
-30.335
-31.119
-31.912
-32.68
-33.399
-34.051
-34.622
-35.095
-35.46
-35.708
-35.838
-35.859
-35.775
-35.593
-35.319
-34.959
-34.525
-34.034
-33.504
-32.956
-32.408
-31.873
-31.361
-30.881
-30.441
-30.045
-29.693
-29.382
-29.11
-28.876
-28.679
-28.519
-28.393
-28.298
-28.231
-28.189
-28.169
-28.169
-28.187
-28.221
-28.269
-28.331
-28.407
-28.496
-28.599
-28.716
-28.844
-28.983
-29.131
-29.287
-29.449
-29.616
-29.787
-29.959
-30.133
-30.308
-30.483
-30.658
-30.832
-31.006
-31.18
-31.353
-31.525
-31.697
-31.869
-32.042
-32.214
-32.387
-32.56
-32.735
-32.91
-33.087
-33.265
-33.445
-33.626
-33.81
-33.996
-34.185
-34.376
-34.571
-34.77
-34.973
-35.181
-35.393
-35.611
-35.835
-36.065
-36.301
-36.544
-36.792
-37.047
-37.307
-37.573
-37.844
-38.12
-38.4
-38.684
-38.97
-39.26
-39.55
-39.841
-40.132
-40.421
-40.707
-40.99
-41.268
-41.541
-41.806
-42.063
-42.312
-42.55
-42.777
-42.992
-43.195
-43.385
-43.56
-43.721
-43.867
-43.998
-44.114
-44.215
-44.301
-44.372
-44.429
-44.472
-44.502
-44.52
-44.527
-44.524
-44.512
-44.492
-44.466
-44.437
-44.404
-44.371
-44.339
-44.31
-44.286
-44.269
-44.26
-44.26
-44.272
-44.296
-44.334
-44.385
-44.451
-44.532
-44.627
-44.736
-44.858
-44.992
-45.137
-45.289
-45.448
-45.612
-45.776
-45.939
-46.097
-46.248
-46.387
-46.511
-46.615
-46.697
-46.75
-46.771
-46.755
-46.698
-46.594
-46.44
-46.231
-45.963
-45.631
-45.231
-44.762
-44.218
-43.598
-42.9
-42.121
-41.262
-40.321
-39.3
-38.2
-37.022
-35.768
-34.443
-33.049
-31.592
-30.076
-28.506
-26.89
-25.233
-23.544
-21.829
-20.099
-18.361
-16.625
-14.902
-13.203
-11.539
-9.923
-8.367
-6.883
-5.482
-4.176
-2.974
-1.886
-0.92
-0.084
0.613
1.168
1.571
1.819
1.907
1.831
1.593
1.199
0.655
-0.033
-0.861
-1.83
-2.937
-4.179
-5.553
-7.056
-8.683
-10.428
-12.274
-14.196
-16.167
-18.166
-20.176
-22.196
-24.217
-26.217
-28.172
-30.042
-31.79
-33.397
-34.835
-36.06
-37.07
-37.889
-38.57
-39.233
-39.984
-40.848
-41.86
-43.037
-44.306
-45.59
-46.794
-47.74
-48.308
-48.518
-48.36
-47.844
-47.123
-46.307
-45.49
-44.827
-44.375
-44.082
-44.042
-44.426
-45.238
-46.579
-48.596
-51.349
-55.051
-59.432
-63.358
-65.694
-65.357
-62.437
-58.46
-53.45
-46.049
-32.778
-8.276
29.406
78.958
136.668
196.569
254.869
309.383
356.642
391.994
409.307
403.433
374.118
325.67
264.636
196.132
121.849
43.033
-37.453
-112.568
-171.71
-208.03
-219.443
-209.27
-186.86
-159.435
-132.38
-110.407
-93.216
-80.497
-71.296
-61.933
-51.719
-41.06
-30.681
-23.247
-19.459
-18.466
-19.535
-21.126
-22.253
-22.697
-22.061
-20.26
-17.53
-14.068
-10.143
-6.112
-2.251
1.15
3.718
5.279
5.859
5.57
4.623
3.245
1.607
-0.102
-1.665
-2.942
-3.845
-4.325
-4.4
-4.084
-3.379
-2.308
-0.896
0.829
2.832
5.072
7.51
10.092
12.762
15.478
18.205
20.914
23.581
26.189
28.729
31.205
33.625
35.998
38.33
40.633
42.924
45.222
47.549
49.932
52.394
54.954
57.627
60.425
63.357
66.43
69.651
73.02
76.531
80.178
83.953
87.843
91.833
95.902
100.029
104.193
108.38
112.578
116.783
120.988
125.19
129.382
133.547
137.673
141.746
145.755
149.688
153.543
157.322
161.033
164.687
168.286
171.821
175.273
178.61
181.791
184.768
187.498
189.947
192.086
193.898
195.366
196.471
197.189
197.492
197.346
196.715
195.572
193.896
191.678
188.928
185.676
181.973
177.872
173.42
168.65
163.583
158.24
152.643
146.821
140.802
134.612
128.284
121.857
115.382
108.915
102.496
96.141
89.848
83.606
77.415
71.286
65.243
59.307
53.495
47.83
42.339
37.062
32.033
27.267
22.755
18.469
14.389
10.513
6.851
3.418
0.216
-2.756
-5.506
-8.032
-10.335
-12.422
-14.315
-16.048
-17.655
-19.154
-20.541
-21.798
-22.913
-23.884
-24.715
-25.41
-25.969
-26.392
-26.685
-26.863
-26.942
-26.931
-26.829
-26.632
-26.333
-25.935
-25.449
-24.893
-24.282
-23.627
-22.94
-22.232
-21.517
-20.806
-20.104
-19.412
-18.728
-18.055
-17.399
-16.764
-16.156
-15.577
-15.029
-14.513
-14.029
-13.578
-13.161
-12.775
-12.419
-12.092
-11.793
-11.523
-11.284
-11.074
-10.895
-10.743
-10.62
-10.525
-10.456
-10.411
-10.387
-10.384
-10.397
-10.427
-10.47
-10.524
-10.587
-10.658
-10.733
-10.812
-10.892
-10.971
-11.047
-11.118
-11.181
-11.235
-11.279
-11.311
-11.329
-11.332
-11.319
-11.29
-11.244
-11.18
-11.098
-10.997
-10.878
-10.74
-10.583
-10.409
-10.217
-10.009
-9.787
-9.552
-9.305
-9.049
-8.784
-8.514
-8.241
-7.966
-7.693
-7.424
-7.16
-6.906
-6.664
-6.436
-6.225
-6.033
-5.862
-5.715
-5.594
-5.499
-5.432
-5.395
-5.387
-5.41
-5.463
-5.546
-5.66
-5.802
-5.971
-6.167
-6.386
-6.626
-6.885
-7.16
-7.447
-7.741
-8.041
-8.34
-8.636
-8.923
-9.196
-9.451
-9.682
-9.884
-10.052
-10.181
-10.265
-10.3
-10.28
-10.201
-10.059
-9.849
-9.569
-9.215
-8.784
-8.274
-7.681
-7.006
-6.247
-5.404
-4.477
-3.466
-2.375
-1.204
0.044
1.364
2.753
4.206
5.718
7.284
8.898
10.552
12.24
13.954
15.685
17.424
19.161
20.886
22.588
24.256
25.881
27.451
28.955
30.382
31.724
32.969
34.111
35.139
36.044
36.819
37.455
37.948
38.293
38.488
38.528
38.41
38.136
37.706
37.125
36.396
35.516
34.485
33.306
31.984
30.524
28.935
27.225
25.407
23.496
21.514
19.483
17.424
15.358
13.304
11.279
9.3
7.389
5.57
3.869
2.314
0.924
-0.294
-1.348
-2.248
-2.997
-3.623
-4.195
-4.824
-5.633
-6.699
-8.017
-9.575
-11.437
-13.635
-16.111
-18.66
-20.952
-22.745
-23.996
-24.715
-24.798
-24.151
-22.785
-20.987
-19.373
-18.49
-18.632
-19.935
-22.555
-26.624
-32.108
-38.538
-44.871
-49.851
-52.242
-50.923
-44.73
-32.415
-12.947
14.281
48.859
89.205
133.272
178.808
224.361
269.563
313.651
354.945
389.082
409.543
411.018
390.004
347.525
288.272
216.462
137.292
55.711
-23.303
-91.756
-142.523
-171.914
-179.473
-170.054
-151.117
-128.553
-107.579
-90.784
-77.636
-67.327
-57.614
-46.753
-35.273
-24.349
-16.044
-11.751
-11.076
-12.953
-16.053
-19.336
-22.319
-24.653
-25.969
-26.078
-25.045
-23.094
-20.492
-17.536
-14.472
-11.554
-9.125
-7.355
-6.221
-5.639
-5.44
-5.457
-5.589
-5.713
-5.671
-5.388
-4.841
-4.028
-3.003
-1.798
-0.422
1.086
2.686
4.352
6.053
7.767
9.484
11.176
12.825
14.424
15.968
17.46
18.908
20.315
21.689
23.045
24.39
25.739
27.108
28.508
29.953
31.462
33.048
34.724
36.507
38.404
40.426
42.584
44.885
47.331
49.924
52.658
55.532
58.539
61.668
64.901
68.219
71.604
75.044
78.535
82.068
85.634
89.223
92.82
96.421
100.03
103.645
107.259
110.869
114.469
118.065
121.68
125.327
129.009
132.72
136.434
140.129
143.784
147.366
150.836
154.139
157.207
159.991
162.458
164.57
166.291
167.572
168.348
168.577
168.224
167.267
165.693
163.492
160.659
157.218
153.211
148.699
143.755
138.428
132.749
126.761
120.503
114.025
107.381
100.606
93.733
86.811
79.893
73.033
66.279
59.646
53.131
46.724
40.412
34.198
28.097
22.113
16.258
10.543
4.992
-0.361
-5.491
-10.401
-15.117
-19.662
-24.053
-28.287
-32.349
-36.232
-39.931
-43.442
-46.762
-49.886
-52.813
-55.557
-58.145
-60.612
-62.979
-65.247
-67.398
-69.418
-71.304
-73.056
-74.68
-76.175
-77.54
-78.782
-79.915
-80.955
-81.911
-82.786
-83.573
-84.266
-84.864
-85.377
-85.823
-86.213
-86.56
-86.871
-87.158
-87.432
-87.706
-87.982
-88.261
-88.542
-88.825
-89.114
-89.414
-89.73
-90.062
-90.412
-90.779
-91.164
-91.567
-91.987
-92.422
-92.87
-93.33
-93.802
-94.287
-94.786
-95.298
-95.823
-96.362
-96.914
-97.48
-98.058
-98.647
-99.247
-99.857
-100.476
-101.104
-101.739
-102.381
-103.03
-103.685
-104.346
-105.012
-105.683
-106.358
-107.036
-107.718
-108.402
-109.089
-109.777
-110.467
-111.157
-111.847
-112.537
-113.227
-113.915
-114.602
-115.286
-115.968
-116.647
-117.323
-117.995
-118.664
-119.328
-119.989
-120.646
-121.3
-121.95
-122.598
-123.243
-123.887
-124.529
-125.17
-125.811
-126.454
-127.097
-127.744
-128.395
-129.05
-129.711
-130.38
-131.057
-131.743
-132.44
-133.149
-133.871
-134.607
-135.358
-136.124
-136.907
-137.706
-138.522
-139.354
-140.204
-141.069
-141.95
-142.846
-143.756
-144.677
-145.609
-146.55
-147.497
-148.449
-149.402
-150.353
-151.301
-152.24
-153.169
-154.084
-154.98
-155.855
-156.705
-157.525
-158.313
-159.064
-159.775
-160.441
-161.059
-161.625
-162.136
-162.588
-162.98
-163.308
-163.571
-163.766
-163.891
-163.947
-163.931
-163.845
-163.687
-163.459
-163.161
-162.797
-162.368
-161.878
-161.329
-160.725
-160.071
-159.372
-158.633
-157.859
-157.057
-156.232
-155.393
-154.546
-153.699
-152.86
-152.038
-151.243
-150.483
-149.77
-149.113
-148.524
-148.013
-147.591
-147.268
-147.054
-146.956
-146.982
-147.137
-147.429
-147.863
-148.444
-149.175
-150.059
-151.098
-152.291
-153.637
-155.128
-156.757
-158.516
-160.398
-162.403
-164.528
-166.77
-169.126
-171.593
-174.165
-176.834
-179.584
-182.393
-185.24
-188.108
-190.987
-193.874
-196.755
-199.615
-202.432
-205.176
-207.824
-210.347
-212.692
-214.836
-216.792
-218.609
-220.393
-222.246
-224.212
-226.356
-228.777
-231.462
-234.329
-237.198
-239.75
-241.774
-243.222
-243.993
-243.946
-243.092
-241.535
-239.574
-237.743
-236.357
-235.487
-235.318
-236.172
-238.278
-241.769
-246.564
-252.29
-258.779
-266.166
-273.83
-280.164
-283.687
-282.993
-278.438
-272.568
-266.174
-258.047
-244.241
-218.319
-177.32
-122.478
-58.29
8.092
71.574
129.116
176.87
210.427
224.378
213.815
178.916
123.848
54.151
-23.638
-105.279
-186.989
-262.652
-325.774
-370.058
-392.055
-393.021
-378.357
-355.283
-330.444
-309.629
-294.633
-284.592
-277.741
-270.3
-260.965
-250.679
-240.715
-233.713
-230.715
-230.897
-233.325
-236.657
-239.899
-242.744
-244.877
-245.97
-245.958
-244.939
-243.081
-240.629
-237.869
-235.031
-232.392
-230.269
-228.777
-227.882
-227.492
-227.446
-227.592
-227.826
-228.018
-228.016
-227.749
-227.196
-226.365
-225.302
-224.035
-222.571
-220.927
-219.141
-217.244
-215.264
-213.225
-211.144
-209.039
-206.934
-204.844
-202.773
-200.722
-198.687
-196.657
-194.628
-192.59
-190.536
-188.46
-186.351
-184.195
-181.979
-179.689
-177.309
-174.829
-172.235
-169.515
-166.664
-163.673
-160.535
-157.247
-153.809
-150.222
-146.489
-142.616
-138.607
-134.477
-130.244
-125.927
-121.544
-117.109
-112.628
-108.111
-103.568
-99.01
-94.451
-89.897
-85.344
-80.792
-76.247
-71.711
-67.187
-62.669
-58.133
-53.567
-48.963
-44.329
-39.69
-35.067
-30.483
-25.968
-21.556
-17.296
-13.254
-9.482
-6.021
-2.911
-0.19
2.09
3.859
5.066
5.675
5.664
5.036
3.792
1.935
-0.511
-3.508
-6.998
-10.907
-15.172
-19.748
-24.584
-29.633
-34.835
-40.112
-45.405
-50.667
-55.859
-60.951
-65.913
-70.714
-75.339
-79.789
-84.074
-88.218
-92.23
-96.107
-99.847
-103.447
-106.91
-110.244
-113.448
-116.512
-119.428
-122.189
-124.788
-127.224
-129.486
-131.556
-133.418
-135.05
-136.439
-137.58
-138.471
-139.108
-139.493
-139.626
-139.516
-139.172
-138.607
-137.829
-136.848
-135.672
-134.313
-132.786
-131.105
-129.284
-127.337
-125.275
-123.113
-120.861
-118.532
-116.136
-113.681
-111.176
-108.629
-106.049
-103.444
-100.822
-98.19
-95.555
-92.923
-90.3
-87.691
-85.098
-82.527
-79.977
-77.45
-74.947
-72.468
-70.012
-67.577
-65.162
-62.765
-60.383
-58.013
-55.651
-53.296
-50.942
-48.586
-46.226
-43.857
-41.475
-39.079
-36.664
-34.227
-31.767
-29.28
-26.764
-24.217
-21.636
-19.021
-16.368
-13.678
-10.948
-8.178
-5.367
-2.516
0.376
3.308
6.279
9.287
12.332
15.41
18.519
21.658
24.824
28.014
31.226
34.456
37.702
40.962
44.233
47.512
50.799
54.091
57.387
60.685
63.985
67.285
70.586
73.887
77.188
80.488
83.787
87.085
90.383
93.681
96.977
100.272
103.566
106.861
110.157
113.456
116.759
120.069
123.389
126.722
130.07
133.437
136.823
140.233
143.667
147.129
150.62
154.141
157.692
161.274
164.891
168.541
172.224
175.939
179.681
183.45
187.249
191.081
194.951
198.865
202.83
206.858
210.967
215.167
219.47
223.884
228.412
233.063
237.846
242.771
247.845
253.071
258.443
263.953
269.594
275.346
281.19
287.097
293.03
298.965
304.889
310.789
316.663
322.509
328.324
334.117
339.901
345.69
351.513
357.406
363.412
369.568
375.908
382.483
389.356
396.593
404.26
412.38
420.939
430.002
439.66
449.862
460.563
471.676
482.891
494.441
506.623
518.875
530.977
541.965
550.707
558.537
566.575
576.181
588.954
603.28
617.651
630.988
641.683
650.146
656.53
660.515
662.421
662.369
660.682
657.45
652.993
647.305
640.653
635.229
632.33
633.373
639.788
649.489
660.544
671.036
677.975
681.567
682.914
682.188
680.337
676.763
669.226
657.362
641.536
621.573
599.614
577.784
558.157
546.847
547.869
559.039
571.429
565.137
518.186
420.308
278.093
117.24
-25.945
-123.369
-165.506
-161.285
-133.438
-104.002
-84.323
-77.141
-77.623
-79.745
-81.23
-80.975
-79.256
-76.303
-71.695
