Name,Kevin Dejbod
Date of Birth,"27 Sep 1999"
Recorded Date,2024-01-24 07:04:49 +0800
Classification,Heart Rate Below 50
Symptoms,
Software Version,1.90
Device,"Watch5,1"
Sample Rate,512.508 hertz


Lead,Lead I
Unit,µV

-1.25
-0.322
0.614
1.558
2.509
3.465
4.426
5.389
6.354
7.319
8.281
9.241
10.194
11.141
12.079
13.006
13.92
14.82
15.703
16.568
17.411
18.232
19.027
19.795
20.532
21.238
21.909
22.544
23.141
23.698
24.212
24.681
25.104
25.479
25.805
26.079
26.302
26.472
26.589
26.654
26.666
26.626
26.535
26.393
26.203
25.965
25.681
25.352
24.982
24.57
24.121
23.636
23.117
22.567
21.989
21.384
20.755
20.105
19.436
18.751
18.051
17.339
16.618
15.89
15.158
14.423
13.687
12.953
12.221
11.493
10.769
10.051
9.339
8.633
7.933
7.239
6.55
5.867
5.189
4.516
3.845
3.178
2.512
1.847
1.183
0.518
-0.147
-0.815
-1.484
-2.156
-2.83
-3.508
-4.19
-4.876
-5.567
-6.263
-6.965
-7.672
-8.385
-9.103
-9.826
-10.553
-11.284
-12.018
-12.753
-13.489
-14.224
-14.957
-15.686
-16.41
-17.126
-17.833
-18.529
-19.212
-19.88
-20.532
-21.166
-21.781
-22.375
-22.947
-23.495
-24.019
-24.518
-24.989
-25.431
-25.844
-26.226
-26.576
-26.892
-27.175
-27.422
-27.633
-27.808
-27.946
-28.047
-28.111
-28.137
-28.126
-28.079
-27.995
-27.875
-27.72
-27.531
-27.309
-27.055
-26.77
-26.456
-26.112
-25.741
-25.343
-24.919
-24.469
-23.996
-23.499
-22.98
-22.441
-21.883
-21.308
-20.716
-20.111
-19.492
-18.861
-18.221
-17.572
-16.917
-16.255
-15.589
-14.919
-14.248
-13.576
-12.903
-12.231
-11.56
-10.891
-10.223
-9.557
-8.892
-8.229
-7.568
-6.909
-6.253
-5.6
-4.949
-4.301
-3.656
-3.014
-2.375
-1.737
-1.101
-0.466
0.169
0.804
1.44
2.078
2.718
3.36
4.006
4.656
5.311
5.971
6.637
7.309
7.986
8.669
9.358
10.05
10.745
11.443
12.142
12.841
13.539
14.235
14.927
15.615
16.297
16.971
17.636
18.291
18.932
19.558
20.166
20.754
21.32
21.861
22.376
22.861
23.315
23.735
24.119
24.465
24.77
25.032
25.25
25.421
25.545
25.621
25.649
25.628
25.558
25.441
25.276
25.064
24.806
24.502
24.155
23.764
23.333
22.862
22.353
21.811
21.237
20.633
20.004
19.353
18.681
17.994
17.293
16.583
15.867
15.148
14.431
13.718
13.013
12.319
11.639
10.976
10.331
9.706
9.103
8.522
7.965
7.432
6.924
6.441
5.982
5.549
5.14
4.756
4.394
4.054
3.734
3.433
3.149
2.879
2.621
2.374
2.134
1.9
1.669
1.438
1.206
0.97
0.727
0.475
0.212
-0.063
-0.35
-0.652
-0.966
-1.294
-1.635
-1.986
-2.347
-2.717
-3.092
-3.471
-3.852
-4.231
-4.606
-4.974
-5.33
-5.671
-5.993
-6.291
-6.561
-6.797
-6.997
-7.154
-7.265
-7.325
-7.329
-7.272
-7.151
-6.961
-6.698
-6.359
-5.941
-5.442
-4.861
-4.197
-3.45
-2.621
-1.712
-0.726
0.335
1.467
2.666
3.927
5.244
6.61
8.02
9.465
10.937
12.428
13.926
15.42
16.9
18.353
19.768
21.133
22.435
23.662
24.805
25.854
26.798
27.626
28.329
28.893
29.312
29.576
29.678
29.612
29.373
28.96
28.376
27.623
26.704
25.616
24.354
22.915
21.3
19.511
17.554
15.44
13.181
10.799
8.324
5.784
3.205
0.608
-1.994
-4.581
-7.125
-9.596
-11.955
-14.166
-16.206
-18.044
-19.658
-21.05
-22.232
-23.236
-24.116
-24.9
-25.616
-26.311
-27.023
-27.801
-28.72
-29.821
-31.175
-32.911
-35.05
-37.547
-40.28
-42.924
-45.164
-46.803
-47.509
-46.921
-45.017
-41.928
-38.103
-34.518
-31.913
-30.703
-31.48
-34.659
-39.994
-46.894
-54.014
-59.027
-59.999
-55.335
-43.197
-22.161
8.37
48.366
96.531
150.016
205.921
261.189
311.923
354.163
384.285
399.08
397.626
381.72
352.898
312.254
258.734
189.852
108.063
21.499
-56.088
-110.181
-134.805
-133.781
-118.534
-101.407
-88.79
-80.729
-73.58
-64.855
-54.802
-45.276
-38.643
-35.483
-34.829
-35.558
-36.267
-35.876
-34.09
-30.845
-26.303
-20.938
-15.185
-9.385
-3.954
0.729
4.492
7.286
9.176
10.347
10.956
11.12
10.979
10.674
10.327
10.056
9.962
10.088
10.471
11.139
12.1
13.359
14.907
16.712
18.733
20.931
23.266
25.703
28.213
30.753
33.281
35.752
38.121
40.357
42.444
44.367
46.121
47.702
49.115
50.372
51.493
52.493
53.386
54.183
54.896
55.541
56.134
56.694
57.238
57.782
58.342
58.935
59.579
60.289
61.081
61.968
62.962
64.076
65.326
66.723
68.279
70.005
71.91
74.004
76.299
78.802
81.523
84.468
87.643
91.054
94.706
98.603
102.743
107.124
111.743
116.598
121.69
127.011
132.55
138.292
144.222
150.318
156.556
162.908
169.335
175.802
182.273
188.714
195.103
201.417
207.633
213.728
219.675
225.458
231.073
236.524
241.809
246.936
251.91
256.743
261.471
266.116
270.693
275.215
279.672
284.04
288.303
292.438
296.418
300.212
303.763
306.99
309.826
312.195
314.027
315.246
315.75
315.45
314.269
312.141
309.037
304.949
299.868
293.793
286.734
278.702
269.747
259.958
249.423
238.239
226.502
214.316
201.819
189.153
176.46
163.863
151.454
139.303
127.481
116.063
105.12
94.727
84.926
75.714
67.088
59.038
51.551
44.606
38.149
32.103
26.38
20.919
15.677
10.628
5.745
0.989
-3.683
-8.32
-12.945
-17.563
-22.174
-26.78
-31.386
-35.983
-40.547
-45.029
-49.371
-53.54
-57.517
-61.293
-64.861
-68.208
-71.319
-74.182
-76.799
-79.177
-81.323
-83.243
-84.938
-86.421
-87.714
-88.85
-89.866
-90.787
-91.633
-92.418
-93.156
-93.862
-94.548
-95.224
-95.892
-96.557
-97.224
-97.901
-98.596
-99.314
-100.054
-100.816
-101.599
-102.4
-103.222
-104.065
-104.929
-105.815
-106.724
-107.66
-108.625
-109.621
-110.65
-111.709
-112.798
-113.916
-115.062
-116.233
-117.426
-118.641
-119.874
-121.123
-122.387
-123.663
-124.949
-126.241
-127.539
-128.84
-130.141
-131.441
-132.737
-134.03
-135.317
-136.597
-137.869
-139.132
-140.384
-141.625
-142.852
-144.066
-145.265
-146.447
-147.612
-148.758
-149.886
-150.994
-152.083
-153.152
-154.201
-155.229
-156.237
-157.225
-158.193
-159.141
-160.07
-160.98
-161.87
-162.742
-163.595
-164.429
-165.244
-166.038
-166.812
-167.565
-168.296
-169.003
-169.685
-170.342
-170.973
-171.577
-172.152
-172.697
-173.212
-173.695
-174.144
-174.56
-174.94
-175.283
-175.588
-175.856
-176.083
-176.27
-176.416
-176.52
-176.581
-176.597
-176.569
-176.495
-176.375
-176.209
-175.995
-175.734
-175.426
-175.071
-174.671
-174.226
-173.737
-173.205
-172.632
-172.018
-171.365
-170.675
-169.95
-169.191
-168.401
-167.582
-166.735
-165.863
-164.968
-164.052
-163.117
-162.164
-161.195
-160.213
-159.218
-158.213
-157.199
-156.177
-155.15
-154.119
-153.084
-152.047
-151.009
-149.971
-148.933
-147.896
-146.859
-145.824
-144.79
-143.758
-142.726
-141.695
-140.664
-139.633
-138.6
-137.564
-136.525
-135.481
-134.431
-133.373
-132.307
-131.231
-130.145
-129.046
-127.934
-126.809
-125.668
-124.511
-123.337
-122.146
-120.937
-119.711
-118.465
-117.202
-115.92
-114.62
-113.301
-111.965
-110.612
-109.242
-107.854
-106.451
-105.033
-103.6
-102.154
-100.696
-99.228
-97.751
-96.266
-94.775
-93.28
-91.783
-90.285
-88.789
-87.296
-85.809
-84.329
-82.86
-81.403
-79.959
-78.531
-77.12
-75.727
-74.353
-73
-71.669
-70.361
-69.077
-67.817
-66.584
-65.378
-64.199
-63.05
-61.93
-60.841
-59.783
-58.756
-57.761
-56.799
-55.87
-54.975
-54.113
-53.286
-52.493
-51.734
-51.008
-50.316
-49.656
-49.028
-48.431
-47.864
-47.328
-46.821
-46.344
-45.897
-45.478
-45.089
-44.728
-44.395
-44.09
-43.811
-43.559
-43.333
-43.132
-42.955
-42.801
-42.67
-42.56
-42.47
-42.399
-42.344
-42.305
-42.278
-42.263
-42.256
-42.258
-42.265
-42.276
-42.291
-42.307
-42.323
-42.337
-42.348
-42.354
-42.354
-42.345
-42.326
-42.295
-42.251
-42.192
-42.118
-42.026
-41.917
-41.789
-41.642
-41.474
-41.284
-41.072
-40.839
-40.584
-40.307
-40.009
-39.692
-39.357
-39.006
-38.639
-38.259
-37.867
-37.465
-37.054
-36.636
-36.213
-35.786
-35.357
-34.928
-34.501
-34.078
-33.659
-33.246
-32.84
-32.441
-32.05
-31.668
-31.294
-30.929
-30.572
-30.223
-29.883
-29.551
-29.227
-28.908
-28.594
-28.283
-27.973
-27.661
-27.345
-27.02
-26.685
-26.336
-25.97
-25.583
-25.174
-24.737
-24.27
-23.771
-23.235
-22.66
-22.043
-21.382
-20.675
-19.921
-19.12
-18.27
-17.372
-16.427
-15.437
-14.402
-13.325
-12.207
-11.05
-9.858
-8.635
-7.383
-6.109
-4.815
-3.511
-2.202
-0.899
0.391
1.658
2.894
4.089
5.234
6.32
7.341
8.289
9.159
9.941
10.627
11.208
11.679
12.035
12.272
12.383
12.367
12.222
11.955
11.567
11.06
10.43
9.666
8.764
7.725
6.551
5.247
3.824
2.29
0.668
-1.01
-2.71
-4.402
-6.061
-7.673
-9.214
-10.65
-11.941
-13.036
-13.901
-14.517
-14.862
-14.927
-14.718
-14.253
-13.574
-12.747
-11.84
-10.922
-10.067
-9.341
-8.82
-8.581
-8.723
-9.386
-10.633
-12.429
-14.655
-17.069
-19.414
-21.51
-23.115
-23.855
-23.503
-22.076
-19.83
-17.387
-15.36
-14.009
-13.493
-14.074
-15.796
-18.29
-20.744
-21.633
-19.206
-12.289
0.01
18.808
45.063
79.346
121.715
170.354
221.92
273.758
324.112
373.291
422.909
471.642
513.962
540.095
540.745
512.824
460.338
393.14
318.698
239.123
154.691
66.792
-15.735
-80.586
-119.378
-131.127
-124.411
-109.345
-92.126
-74.424
-53.143
-26.566
3.62
34.528
62.018
83.021
96.792
103.534
104.082
99.678
91.69
81.367
70.218
60.113
52.211
47.057
44.909
45.456
48.139
52.526
57.875
63.15
67.773
71.488
74.209
76.175
77.642
78.771
79.839
81.203
83.027
85.349
88.148
91.283
94.649
98.197
101.842
105.479
109.029
112.399
115.501
118.287
120.707
122.705
124.271
125.407
126.145
126.558
126.707
126.637
126.397
126.02
125.531
124.969
124.376
123.796
123.298
122.937
122.755
122.797
123.08
123.609
124.375
125.338
126.463
127.733
129.132
130.658
132.318
134.108
136.029
138.083
140.261
142.558
144.974
147.502
150.146
152.921
155.843
158.943
162.251
165.784
169.556
173.572
177.835
182.349
187.115
192.123
197.361
202.816
208.474
214.318
220.326
226.469
232.709
239.01
245.336
251.658
257.948
264.18
270.33
276.373
282.282
288.044
293.652
299.106
304.408
309.565
314.585
319.482
324.281
328.996
333.628
338.174
342.623
346.959
351.164
355.218
359.097
362.77
366.192
369.306
372.04
374.321
376.077
377.234
377.706
377.419
376.323
374.372
371.529
367.768
363.069
357.408
350.775
343.174
334.613
325.14
314.827
303.75
291.993
279.645
266.81
253.596
240.107
226.44
212.698
198.986
185.413
172.112
159.198
146.775
134.952
123.794
113.339
103.625
94.672
86.492
79.086
72.434
66.508
61.286
56.724
52.771
49.355
46.374
43.736
41.36
39.159
37.072
35.057
33.067
31.072
29.055
26.995
24.89
22.743
20.551
18.322
16.078
13.849
11.688
9.64
7.733
6.001
4.46
3.119
1.988
1.061
0.326
-0.23
-0.623
-0.871
-0.988
-0.99
-0.903
-0.754
-0.576
-0.398
-0.24
-0.121
-0.053
-0.047
-0.11
-0.243
-0.442
-0.704
-1.024
-1.399
-1.83
-2.311
-2.837
-3.403
-4.001
-4.627
-5.274
-5.939
-6.618
-7.307
-8.004
-8.705
-9.412
-10.122
-10.833
-11.542
-12.248
-12.946
-13.636
-14.315
-14.98
-15.631
-16.265
-16.883
-17.485
-18.072
-18.644
-19.203
-19.751
-20.288
-20.818
-21.344
-21.867
-22.39
-22.918
-23.452
-23.996
-24.553
-25.125
-25.715
-26.325
-26.957
-27.614
-28.296
-29.005
-29.744
-30.512
-31.311
-32.141
-33.004
-33.9
-34.828
-35.788
-36.78
-37.803
-38.855
-39.935
-41.041
-42.17
-43.321
-44.49
-45.676
-46.874
-48.081
-49.294
-50.511
-51.727
-52.939
-54.144
-55.339
-56.522
-57.689
-58.84
-59.971
-61.082
-62.171
-63.236
-64.278
-65.296
-66.288
-67.255
-68.198
-69.116
-70.009
-70.88
-71.727
-72.553
-73.359
-74.146
-74.916
-75.67
-76.41
-77.139
-77.859
-78.571
-79.278
-79.983
-80.687
-81.394
-82.105
-82.823
-83.549
-84.284
-85.031
-85.789
-86.56
-87.344
-88.142
-88.952
-89.775
-90.61
-91.457
-92.314
-93.181
-94.057
-94.941
-95.832
-96.728
-97.629
-98.533
-99.439
-100.347
-101.255
-102.162
-103.068
-103.969
-104.867
-105.759
-106.643
-107.52
-108.388
-109.245
-110.091
-110.925
-111.748
-112.558
-113.357
-114.143
-114.919
-115.685
-116.441
-117.19
-117.933
-118.67
-119.404
-120.136
-120.867
-121.599
-122.333
-123.071
-123.813
-124.56
-125.313
-126.073
-126.839
-127.613
-128.395
-129.185
-129.983
-130.79
-131.605
-132.43
-133.264
-134.107
-134.959
-135.82
-136.689
-137.566
-138.45
-139.341
-140.236
-141.134
-142.034
-142.935
-143.834
-144.73
-145.621
-146.504
-147.378
-148.241
-149.093
-149.931
-150.754
-151.562
-152.353
-153.128
-153.885
-154.625
-155.348
-156.053
-156.74
-157.409
-158.062
-158.698
-159.317
-159.92
-160.508
-161.081
-161.641
-162.187
-162.721
-163.244
-163.757
-164.262
-164.761
-165.254
-165.746
-166.237
-166.729
-167.226
-167.728
-168.239
-168.76
-169.293
-169.839
-170.401
-170.98
-171.577
-172.193
-172.83
-173.488
-174.169
-174.873
-175.601
-176.353
-177.13
-177.932
-178.759
-179.612
-180.49
-181.393
-182.321
-183.275
-184.253
-185.255
-186.281
-187.329
-188.399
-189.488
-190.596
-191.72
-192.858
-194.01
-195.172
-196.343
-197.521
-198.703
-199.887
-201.071
-202.251
-203.426
-204.591
-205.744
-206.883
-208.002
-209.101
-210.175
-211.221
-212.236
-213.217
-214.16
-215.062
-215.92
-216.729
-217.486
-218.188
-218.83
-219.41
-219.924
-220.37
-220.745
-221.046
-221.27
-221.417
-221.483
-221.467
-221.367
-221.182
-220.911
-220.554
-220.113
-219.586
-218.977
-218.287
-217.52
-216.679
-215.768
-214.792
-213.756
-212.665
-211.526
-210.347
-209.134
-207.896
-206.643
-205.385
-204.133
-202.9
-201.696
-200.535
-199.428
-198.388
-197.427
-196.555
-195.782
-195.12
-194.577
-194.167
-193.901
-193.787
-193.836
-194.054
-194.449
-195.026
-195.789
-196.735
-197.863
-199.17
-200.657
-202.329
-204.191
-206.239
-208.472
-210.884
-213.463
-216.196
-219.064
-222.034
-225.077
-228.165
-231.271
-234.379
-237.466
-240.505
-243.465
-246.302
-248.976
-251.461
-253.728
-255.751
-257.533
-259.078
-260.416
-261.606
-262.688
-263.702
-264.702
-265.733
-266.857
-268.158
-269.675
-271.474
-273.659
-276.267
-279.293
-282.649
-286.045
-289.141
-291.691
-293.414
-293.996
-293.258
-291.12
-287.8
-284.001
-280.581
-278.14
-277.005
-277.634
-280.406
-285.209
-291.509
-297.062
-298.146
-293.157
-281.607
-264.145
-243.901
-218.981
-185.164
-140.424
-80.72
-9.309
66.334
143.032
212.726
269.19
307.028
314.755
289.167
232.503
151.27
57.79
-43.246
-148.951
-255.671
-357.639
-439.696
-490.752
-507.495
-494.152
-465.434
-432.463
-399.921
-369.007
-336.467
-302.113
-269.285
-241.657
-222.848
-213.852
-213.572
-220.315
-231.688
-245.434
-259.517
-271.712
-280.613
-285.72
-286.915
-284.662
-279.794
-273.167
-265.823
-258.95
-253.247
-248.978
-246.216
-244.722
-244.189
-244.341
-244.775
-245.062
-244.979
-244.44
-243.445
-242.092
-240.44
-238.518
-236.397
-234.143
-231.797
-229.386
-226.917
-224.393
-221.84
-219.301
-216.819
-214.429
-212.15
-209.988
-207.948
-206.032
-204.241
-202.571
-201.011
-199.553
-198.195
-196.929
-195.749
-194.644
-193.595
-192.584
-191.589
-190.59
-189.567
-188.504
-187.381
-186.186
-184.903
-183.517
-182.016
-180.387
-178.614
-176.687
-174.591
-172.314
-169.843
-167.169
-164.28
-161.171
-157.831
-154.254
-150.432
-146.359
-142.031
-137.446
-132.598
-127.482
-122.09
-116.42
-110.479
-104.274
-97.82
-91.133
-84.233
-77.147
-69.912
-62.565
-55.136
-47.648
-40.122
-32.584
-25.065
-17.602
-10.229
-2.968
4.17
11.177
18.048
24.788
31.417
37.976
44.516
51.072
57.658
64.266
70.884
77.507
84.133
90.758
97.369
103.933
110.409
116.762
122.943
128.876
134.457
139.54
143.981
147.67
150.525
152.494
153.528
153.574
152.579
150.512
147.35
143.081
137.696
131.175
123.533
114.839
105.197
94.769
83.715
72.157
60.215
47.997
35.615
23.191
10.849
-1.309
-13.164
-24.581
-35.423
-45.539
-54.82
-63.212
-70.692
-77.28
-82.998
-87.852
-91.861
-95.06
-97.486
-99.183
-100.204
-100.596
-100.435
-99.838
-98.916
-97.79
-96.552
-95.256
-93.943
-92.639
-91.362
-90.127
-88.94
-87.789
-86.667
-85.574
-84.499
-83.43
-82.335
-81.153
-79.833
-78.33
-76.613
-74.67
-72.49
-70.069
-67.411
-64.534
-61.454
-58.197
-54.783
-51.221
-47.53
-43.729
-39.847
-35.919
-31.974
-28.031
-24.109
-20.22
-16.371
-12.573
-8.824
-5.119
-1.452
2.183
5.79
9.37
12.926
16.465
19.993
23.518
27.045
30.579
34.124
37.685
41.267
44.872
48.503
52.16
55.844
59.559
63.306
67.089
70.91
74.771
78.674
82.621
86.614
90.653
94.74
98.873
103.052
107.276
111.545
115.856
120.208
124.599
129.024
133.482
137.97
142.483
147.019
151.573
156.143
160.725
165.316
169.913
174.512
179.112
183.709
188.301
192.886
197.463
202.031
206.587
211.133
215.667
220.189
224.699
229.199
233.69
238.171
242.646
247.115
251.582
256.047
260.514
264.985
269.463
273.951
278.452
282.97
287.507
292.067
296.654
301.27
305.92
310.606
315.33
320.096
324.905
329.759
334.66
339.608
344.604
349.647
354.737
359.872
365.052
370.272
375.532
380.827
386.155
391.512
396.895
402.299
407.72
413.154
418.599
424.048
429.5
434.948
440.39
445.823
451.243
456.646
462.031
467.394
472.732
478.045
483.33
488.586
493.813
499.009
504.176
509.315
514.428
519.519
524.591
529.647
534.691
539.727
544.761
549.798
554.846
559.909
564.994
570.11
575.265
580.469
585.729
591.05
596.436
601.891
607.421
613.035
618.741
624.544
630.449
636.46
642.58
648.814
655.164
661.625
668.191
674.853
681.605
688.446
695.375
702.396
709.497
716.654
723.842
731.027
738.194
745.35
752.487
759.587
766.635
773.591
780.458
787.302
794.082
800.671
806.953
812.772
818.121
823.213
828.123
832.762
837.243
841.784
846.641
852.242
858.587
865.146
871.628
877.957
883.878
889.144
893.383
895.924
896.706
896.348
895.229
893.571
891.634
889.513
887.485
886.126
885.514
885.216
884.945
884.467
883.622
882.472
880.931
878.729
875.828
872.398
868.564
864.468
860.17
855.595
850.729
845.625
840.3
834.756
828.99
822.987
816.759
810.363
803.853
797.271
790.649
784.001
777.335
770.675
764.047
757.482
751.011
744.65
738.404
732.274
726.261
720.355
714.53
708.743
702.936
697.07
691.127
685.112
679.039
672.92
666.764
660.581
654.396
648.249
642.192
636.281
630.577
625.168
620.166
615.714
611.958
609.01
606.949
605.823
605.658
606.472
608.266
611.027
614.722
619.3
624.709
630.892
637.771
645.242
653.165
661.366
669.683
677.979
686.141
694.094
701.778
709.156
716.217
722.964
729.403
735.542
741.375
746.89
752.081
756.953
761.524
765.831
769.892
773.701
777.241
780.466
783.304
785.662
787.411
788.413
788.546
787.691
785.753
782.656
778.339
772.749
765.849
757.607
748.008
737.057
724.768
711.179
696.353
680.374
663.367
645.459
626.775
607.429
587.522
567.141
546.354
525.21
503.746
481.996
460.001
437.797
415.409
392.845
370.101
347.159
323.995
300.57
276.81
252.701
228.325
203.867
179.648
156.025
133.284
111.711
91.652
73.296
56.546
41.021
25.961
10.527
-5.803
-23.419
-42.754
-63.898
-86.357
-109.093
-130.327
-148.019
-160.668
-166.948
-165.405
-155.154
-136.08
-108.812
-75.162
-37.564
1.784
40.242
74.505
101.599
118.72
123.361
114.082
89.908
50.9
-0.86
-62.622
-132.198
-209.382
-295.124
-387.744
-481.006
-563.633
-624.358
-658.161
-667.426
-661.426
-649.845
-637.973
-627.171
-615.384
-601.319
-586.102
-571.915
-561.528
-556.536
-556.927
-561.915
-570.132
-580.235
-591.145
-601.798
-611.385
-619.308
-625.221
-629.175
-631.538
-632.87
-633.813
-635.036
-636.96
-639.809
-643.665
-648.428
-653.919
-659.894
-666.029
-671.966
-677.485
-682.484
-686.914
-690.801
-694.145
-696.921
-699.155
-700.912
-702.254
-703.248
-703.959
-704.43
-704.714
-704.887
-705.012
-705.14
-705.302
-705.503
-705.743
-706.029
-706.373
-706.793
-707.298
-707.887
-708.55
-709.27
-710.026
-710.793
-711.547
-712.256
-712.893
-713.429
-713.846
-714.132
-714.283
-714.292
-714.148
-713.829
-713.327
-712.645
-711.783
-710.743
-709.516
-708.07
-706.393
-704.503
-702.375
-699.951
-697.185
-694.023
-690.453
-686.535
-682.28
-677.613
-672.598
-667.483
-662.325
-657.058
-651.727
-646.079
-640.636
-636.978
-634.797
-632.699
-628.359
-617.378
-600.064
-580.875
-564.259
-556.524
-558.074
-562.989
-566.685
-564.202
-554.686
-542.569
-530.566
-520.521
-512.964
-506.058
-498.973
-491.763
-484.382
-477.124
-470.092
-463.082
-456.055
-449.105
-442.288
-435.662
-429.323
-423.362
-417.87
-412.971
-408.779
-405.364
-402.806
-401.177
-400.511
-400.825
-402.11
-404.336
-407.482
-411.507
-416.351
-421.945
-428.201
-435.037
-442.399
-450.211
-458.367
-466.757
-475.253
-483.729
-492.102
-500.301
-508.272
-515.979
-523.376
-530.435
-537.144
-543.493
-549.482
-555.096
-560.284
-565.012
-569.285
-573.118
-576.563
-579.68
-582.495
-585.028
-587.3
-589.315
-591.085
-592.617
-593.9
-594.924
-595.689
-596.207
-596.524
-596.676
-596.675
-596.518
-596.183
-595.631
-594.849
-593.828
-592.549
-591.012
-589.213
-587.156
-584.862
-582.351
-579.636
-576.723
-573.604
-570.271
-566.734
-563.005
-559.108
-555.073
-550.923
-546.681
-542.373
-538.02
-533.639
-529.244
-524.839
-520.427
-516.013
-511.604
-507.211
-502.844
-498.51
-494.213
-489.957
-485.744
-481.575
-477.451
-473.371
-469.333
-465.338
-461.386
-457.48
-453.623
-449.817
-446.064
-442.363
-438.716
-435.123
-431.582
-428.092
-424.65
-421.254
-417.904
-414.596
-411.329
-408.102
-404.914
-401.762
-398.647
-395.565
-392.517
-389.5
-386.512
-383.553
-380.619
-377.709
-374.822
-371.955
-369.107
-366.275
-363.459
-360.656
-357.863
-355.08
-352.303
-349.531
-346.761
-343.992
-341.221
-338.448
-335.67
-332.888
-330.101
-327.308
-324.509
-321.704
-318.892
-316.074
-313.248
-310.414
-307.572
-304.722
-301.863
-298.995
-296.12
-293.237
-290.346
-287.45
-284.548
-281.64
-278.729
-275.814
-272.896
-269.978
-267.059
-264.141
-261.225
-258.314
-255.408
-252.508
-249.616
-246.731
-243.855
-240.988
-238.129
-235.278
-232.436
-229.601
-226.775
-223.955
-221.143
-218.338
-215.538
-212.745
-209.957
-207.173
-204.392
-201.614
-198.838
-196.063
-193.289
-190.515
-187.741
-184.965
-182.189
-179.411
-176.63
-173.846
-171.06
-168.269
-165.475
-162.676
-159.874
-157.068
-154.258
-151.447
-148.633
-145.819
-143.006
-140.194
-137.385
-134.58
-131.78
-128.987
-126.202
-123.427
-120.664
-117.913
-115.178
-112.459
-109.758
-107.076
-104.414
-101.774
-99.156
-96.561
-93.99
-91.443
-88.922
-86.425
-83.955
-81.51
-79.092
-76.701
-74.335
-71.995
-69.681
-67.392
-65.127
-62.886
-60.668
-58.473
-56.299
-54.146
-52.013
-49.9
-47.805
-45.726
-43.664
-41.617
-39.583
-37.562
-35.552
-33.554
-31.566
-29.588
-27.619
-25.66
-23.71
-21.77
-19.838
-17.917
-16.006
-14.105
-12.215
-10.337
-8.471
-6.619
-4.781
-2.958
-1.151
0.64
2.413
4.168
5.904
7.621
9.317
10.993
12.646
14.277
15.885
17.469
19.029
20.564
22.074
23.559
25.02
26.456
27.869
29.26
30.629
31.978
33.308
34.623
35.922
37.21
38.488
39.759
41.026
42.292
43.56
44.834
46.116
47.411
48.721
50.051
51.404
52.783
54.192
55.634
57.114
58.634
60.199
61.81
63.473
65.188
66.959
68.789
70.678
72.628
74.64
76.715
78.852
81.051
83.31
85.627
88.001
90.427
92.903
95.424
97.984
100.58
103.203
105.848
108.505
111.166
113.82
116.457
119.067
121.638
124.159
126.62
129.01
131.32
133.54
135.66
137.67
139.556
141.309
142.92
144.379
145.68
146.814
147.775
148.563
149.176
149.613
149.87
149.936
149.8
149.461
148.917
148.172
147.234
146.112
144.824
143.399
141.865
140.252
138.585
136.88
135.156
133.444
131.78
130.209
128.776
127.505
126.418
125.536
124.856
124.361
124.015
123.75
123.514
123.259
122.926
122.457
121.78
120.807
119.476
117.698
115.349
112.391
108.858
104.881
100.771
96.845
93.348
90.609
88.981
88.637
89.606
91.598
93.907
95.896
97.134
97.232
95.909
93.124
89.102
84.735
81.684
81.68
86.255
96.956
115.246
142.388
179.562
226.224
279.481
336.219
393.334
449.79
508.241
569.435
629.82
680.879
708.605
702.397
660.079
587.532
496.041
394.83
290.743
188.948
96.956
27.326
-12.155
-20.057
-2.738
25.087
53.114
76.875
95.759
113.863
132.411
149.699
163.844
172.09
173.837
170.593
164.193
156.927
150.582
145.869
143.193
142.934
145.076
149.321
155.124
161.512
167.528
172.712
176.833
179.727
181.418
181.97
181.5
180.373
179.009
177.672
176.544
175.717
175.189
174.986
175.14
175.619
176.379
177.371
178.547
179.887
181.388
183.031
184.79
186.624
188.48
190.31
192.069
193.723
195.255
196.647
197.888
198.973
199.9
200.683
201.336
201.873
202.301
202.631
202.874
203.047
203.174
203.272
203.361
203.456
203.573
203.726
203.933
204.204
204.551
204.986
205.517
206.159
206.924
207.824
208.872
210.079
211.457
213.019
214.776
216.734
218.902
221.291
223.91
226.773
229.885
233.246
236.854
240.701
244.778
249.07
253.554
258.197
262.973
267.858
272.833
277.885
282.991
288.126
293.266
298.387
303.473
308.518
313.517
318.466
323.381
328.286
333.216
338.221
343.332
348.558
353.905
359.363
364.918
370.559
376.252
381.952
387.616
393.184
398.595
403.782
408.646
413.065
416.924
420.087
422.444
423.908
424.389
423.827
422.182
419.428
415.58
410.667
404.713
397.753
389.836
381.019
371.402
361.103
350.219
338.873
327.187
315.275
303.279
291.315
279.462
267.783
256.313
245.076
234.117
223.474
213.162
203.202
193.588
184.311
175.4
166.856
158.66
150.778
143.141
135.702
128.448
121.377
114.493
107.804
101.301
94.983
88.869
82.965
77.28
71.811
66.521
61.395
56.442
51.681
47.159
42.909
38.935
35.241
31.834
28.713
25.881
23.332
21.04
18.987
17.165
15.571
14.217
13.105
12.218
11.537
11.031
10.673
10.445
10.329
10.3
10.339
10.429
10.562
10.736
10.946
11.184
11.437
11.692
11.94
12.175
12.391
12.585
12.754
12.894
13.005
13.088
13.143
13.169
13.164
13.124
13.047
12.934
12.782
12.594
12.368
12.107
11.813
11.489
11.137
10.761
10.362
9.944
9.509
9.059
8.597
8.125
7.645
7.159
6.67
6.18
5.69
5.203
4.72
4.242
3.771
3.307
2.852
2.404
1.965
1.535
1.114
0.702
0.297
-0.1
-0.489
-0.873
-1.251
-1.625
-1.998
-2.37
-2.744
-3.121
-3.505
-3.896
-4.297
-4.708
-5.132
-5.57
-6.022
-6.491
-6.975
-7.477
-7.997
-8.535
-9.091
-9.666
-10.258
-10.867
-11.492
-12.133
-12.787
-13.454
-14.132
-14.819
-15.513
-16.213
-16.917
-17.622
-18.326
-19.028
-19.725
-20.415
-21.096
-21.764
-22.419
-23.058
-23.679
-24.281
-24.863
-25.424
-25.962
-26.478
-26.972
-27.443
-27.892
-28.319
-28.726
-29.113
-29.482
-29.834
-30.172
-30.498
-30.815
-31.125
-31.431
-31.735
-32.041
-32.35
-32.666
-32.99
-33.325
-33.674
-34.037
-34.417
-34.817
-35.236
-35.678
-36.142
-36.63
-37.141
-37.677
-38.236
-38.817
-39.421
-40.046
-40.691
-41.354
-42.033
-42.726
-43.432
-44.148
-44.87
-45.596
-46.324
-47.048
-47.768
-48.478
-49.176
-49.86
-50.527
-51.174
-51.799
-52.401
-52.978
-53.528
-54.05
-54.544
-55.008
-55.444
-55.85
-56.229
-56.579
-56.903
-57.203
-57.479
-57.733
-57.969
-58.186
-58.389
-58.578
-58.757
-58.927
-59.091
-59.251
-59.411
-59.574
-59.741
-59.915
-60.1
-60.296
-60.506
-60.732
-60.975
-61.237
-61.518
-61.819
-62.14
-62.482
-62.844
-63.226
-63.628
-64.047
-64.482
-64.933
-65.396
-65.869
-66.351
-66.839
-67.331
-67.824
-68.316
-68.805
-69.289
-69.766
-70.233
-70.687
-71.127
-71.551
-71.956
-72.34
-72.703
-73.041
-73.354
-73.641
-73.9
-74.132
-74.335
-74.508
-74.652
-74.767
-74.851
-74.907
-74.934
-74.935
-74.91
-74.861
-74.79
-74.7
-74.591
-74.467
-74.33
-74.181
-74.023
-73.859
-73.69
-73.519
-73.35
-73.184
-73.024
-72.874
-72.735
-72.611
-72.503
-72.413
-72.343
-72.294
-72.27
-72.27
-72.298
-72.354
-72.441
-72.559
-72.711
-72.896
-73.116
-73.37
-73.658
-73.978
-74.331
-74.714
-75.127
-75.568
-76.036
-76.529
-77.044
-77.579
-78.13
-78.695
-79.268
-79.846
-80.422
-80.993
-81.552
-82.094
-82.614
-83.108
-83.572
-84.002
-84.394
-84.744
-85.048
-85.301
-85.499
-85.635
-85.703
-85.697
-85.609
-85.437
-85.176
-84.823
-84.376
-83.832
-83.193
-82.459
-81.629
-80.701
-79.669
-78.53
-77.29
-75.956
-74.543
-73.071
-71.554
-70.013
-68.47
-66.946
-65.45
-63.989
-62.554
-61.137
-59.738
-58.366
-57.038
-55.773
-54.573
-53.438
-52.366
-51.345
-50.364
-49.407
-48.436
-47.432
-46.395
-45.345
-44.331
-43.411
-42.62
-41.981
-41.508
-41.203
-41.083
-41.159
-41.425
-41.885
-42.546
-43.422
-44.565
-46.002
-47.723
-49.697
-51.848
-54.086
-56.355
-58.607
-60.799
-62.912
-64.915
-66.8
-68.613
-70.396
-72.187
-74.013
-75.846
-77.662
-79.483
-81.36
-83.376
-85.626
-88.175
-91.048
-94.291
-97.976
-102.084
-106.489
-110.915
-114.907
-118.033
-120.005
-120.505
-119.191
-116.005
-111.049
-104.694
-97.848
-91.294
-85.536
-81.226
-78.774
-77.885
-77.985
-77.947
-75.719
-69.502
-57.688
-38.359
-10.215
27.028
73.036
126.441
184.586
244.531
302.856
355.53
398.652
428.698
442.729
438.622
416.628
379.331
329.593
269.75
199.127
115.386
20.507
-77.207
-162.885
-222.147
-249.143
-246.981
-228.101
-203.561
-177.954
-154.678
-131.452
-108.04
-88.565
-72.028
-59.24
-50.702
-43.429
-38.677
-37.341
-38.715
-43.426
-50.219
-57.185
-63.185
-67.286
-69.266
-69.318
-67.664
-64.476
-59.903
-54.417
-48.79
-43.516
-38.847
-34.864
-31.4
-28.356
-25.687
-23.231
-20.754
-18.138
-15.388
-12.572
-9.845
-7.322
-5.052
-3.09
-1.488
-0.27
0.571
1.07
1.299
1.331
1.197
0.935
0.59
0.212
-0.109
-0.293
-0.284
-0.034
0.491
1.307
2.429
3.862
5.587
7.578
9.806
12.231
14.839
17.629
20.591
23.714
26.969
30.321
33.748
37.235
40.776
44.375
48.035
51.758
55.558
59.449
63.435
67.52
71.688
75.908
80.163
84.446
88.767
93.154
97.644
102.274
107.074
112.064
117.256
122.663
128.29
134.146
140.244
146.609
153.272
160.28
167.661
175.426
183.558
192.011
200.721
209.603
218.58
227.586
236.559
245.447
254.199
262.768
271.099
279.137
286.815
294.05
300.774
306.926
312.472
317.398
321.708
325.425
328.568
331.153
333.188
334.673
335.607
335.986
335.806
335.06
333.755
331.909
329.537
326.659
323.285
319.417
315.052
310.184
304.807
298.922
292.534
285.657
278.308
270.513
262.3
253.704
244.757
235.489
225.932
216.114
206.068
195.83
185.436
174.924
164.331
153.696
143.057
132.448
121.903
111.454
101.13
90.958
80.964
71.174
61.611
52.298
43.258
34.511
26.075
17.966
10.2
2.787
-4.261
-10.939
-17.24
-23.16
-28.7
-33.859
-38.64
-43.048
-47.088
-50.77
-54.101
-57.092
-59.755
-62.103
-64.149
-65.908
-67.394
-68.622
-69.608
-70.368
-70.919
-71.275
-71.453
-71.469
-71.339
-71.079
-70.702
-70.225
-69.662
-69.026
-68.331
-67.589
-66.813
-66.013
-65.199
-64.381
-63.568
-62.767
-61.984
-61.226
-60.497
-59.801
-59.142
-58.523
-57.946
-57.412
-56.923
-56.479
-56.08
-55.727
-55.419
-55.155
-54.933
-54.754
-54.614
-54.512
-54.446
-54.414
-54.414
-54.444
-54.5
-54.582
-54.685
-54.807
-54.947
-55.1
-55.265
-55.439
-55.618
-55.802
-55.989
-56.175
-56.36
-56.542
-56.72
-56.893
-57.059
-57.218
-57.368
-57.51
-57.642
-57.764
-57.875
-57.975
-58.064
-58.142
-58.208
-58.264
-58.308
-58.341
-58.364
-58.376
-58.377
-58.369
-58.351
-58.325
-58.291
-58.25
-58.203
-58.151
-58.094
-58.035
-57.973
-57.91
-57.845
-57.779
-57.713
-57.648
-57.582
-57.517
-57.452
-57.389
-57.325
-57.262
-57.199
-57.135
-57.07
-57.004
-56.935
-56.864
-56.791
-56.713
-56.632
-56.546
-56.456
-56.361
-56.259
-56.151
-56.037
-55.914
-55.784
-55.644
-55.495
-55.335
-55.165
-54.984
-54.792
-54.589
-54.374
-54.148
-53.911
-53.662
-53.403
-53.132
-52.852
-52.561
-52.261
-51.952
-51.635
-51.311
-50.979
-50.64
-50.295
-49.943
-49.585
-49.221
-48.851
-48.474
-48.091
-47.702
-47.306
-46.904
-46.495
-46.08
-45.659
-45.231
-44.797
-44.357
-43.911
-43.459
-43.001
-42.538
-42.069
-41.597
-41.12
-40.64
-40.157
-39.673
-39.188
-38.702
-38.218
-37.736
-37.258
-36.785
-36.32
-35.862
-35.416
-34.983
-34.565
-34.164
-33.783
-33.423
-33.086
-32.776
-32.493
-32.239
-32.016
-31.826
-31.669
-31.547
-31.461
-31.41
-31.395
-31.416
-31.473
-31.564
-31.689
-31.846
-32.035
-32.252
-32.497
-32.766
-33.058
-33.37
-33.698
-34.04
-34.393
-34.752
-35.116
-35.479
-35.84
-36.193
-36.536
-36.866
-37.179
-37.473
-37.743
-37.988
-38.206
-38.393
-38.549
-38.671
-38.76
-38.813
-38.832
-38.815
-38.764
-38.679
-38.562
-38.414
-38.237
-38.033
-37.804
-37.553
-37.283
-36.997
-36.698
-36.389
-36.074
-35.756
-35.438
-35.123
-34.814
-34.515
-34.228
-33.956
-33.702
-33.468
-33.256
-33.069
-32.908
-32.775
-32.671
-32.597
-32.554
-32.541
-32.56
-32.61
-32.69
-32.799
-32.938
-33.104
-33.297
-33.515
-33.756
-34.019
-34.301
-34.601
-34.917
-35.246
-35.586
-35.936
-36.294
-36.659
-37.028
-37.4
-37.775
-38.151
-38.526
-38.9
-39.272
-39.64
-40.004
-40.363
-40.718
-41.066
-41.408
-41.744
-42.073
-42.394
-42.708
-43.012
-43.306
-43.589
-43.86
-44.118
-44.362
-44.591
-44.803
-44.997
-45.173
-45.327
-45.46
-45.567
-45.648
-45.7
-45.721
-45.706
-45.655
-45.563
-45.428
-45.248
-45.019
-44.739
-44.406
-44.015
-43.564
-43.052
-42.475
-41.831
-41.12
-40.34
-39.49
-38.571
-37.584
-36.53
-35.409
-34.226
-32.981
-31.679
-30.322
-28.915
-27.462
-25.969
-24.441
-22.885
-21.308
-19.718
-18.125
-16.538
-14.969
-13.428
-11.927
-10.476
-9.088
-7.772
-6.539
-5.396
-4.355
-3.424
-2.614
-1.936
-1.397
-1.005
-0.766
-0.685
-0.767
-1.013
-1.42
-1.986
-2.71
-3.596
-4.653
-5.89
-7.307
-8.903
-10.672
-12.606
-14.695
-16.919
-19.247
-21.649
-24.094
-26.557
-29.023
-31.468
-33.862
-36.164
-38.317
-40.277
-42.013
-43.5
-44.724
-45.686
-46.394
-46.884
-47.21
-47.439
-47.64
-47.879
-48.225
-48.757
-49.548
-50.712
-52.414
-54.741
-57.702
-61.182
-64.904
-68.594
-72.022
-74.877
-76.782
-77.478
-76.875
-75.32
-73.584
-72.36
-72.208
-73.536
-76.592
-81.551
-88.247
-95.617
-101.883
-105.152
-103.49
-95.355
-79.436
-54.255
-18.835
26.653
81.018
142.3
207.789
274.715
339.881
399.071
447.988
482.85
500.376
499.271
480.584
445.361
395.438
330.822
248.471
149.705
40.369
-66.926
-153.179
-206.988
-226.524
-219.279
-200.962
-181.556
-164.159
-148.075
-128.694
-104.977
-79.379
-54.464
-33.578
-18.721
-9.794
-6.032
-6.27
-9.222
-14.003
-20.053
-26.459
-31.9
-35.572
-37.202
-36.832
-34.934
-31.924
-27.987
-23.627
-19.653
-16.535
-14.486
-13.514
-13.318
-13.659
-14.411
-15.326
-16.084
-16.487
-16.42
-15.863
-14.919
-13.644
-12.061
-10.211
-8.128
-5.866
-3.477
-0.992
1.563
4.156
6.743
9.28
11.73
14.076
16.312
18.437
20.457
22.37
24.184
25.904
27.527
29.062
30.518
31.895
33.203
34.459
35.68
36.893
38.131
39.412
40.756
42.189
43.727
45.383
47.164
49.061
51.067
53.185
55.42
57.794
60.322
63.004
65.839
68.821
71.936
75.176
78.522
81.932
85.38
88.858
92.373
95.956
99.649
103.461
107.395
111.452
115.625
119.929
124.374
128.956
133.686
138.578
143.659
148.994
154.632
160.585
166.856
173.42
180.234
187.294
194.583
202.067
209.717
217.485
225.327
233.22
241.124
248.977
256.697
264.166
271.26
277.891
283.965
289.394
294.108
298.023
301.07
303.225
304.465
304.774
304.137
302.517
299.886
296.249
291.629
286.079
279.674
272.482
264.585
256.085
247.073
237.634
227.836
217.712
207.278
196.566
185.619
174.498
163.285
152.052
140.856
129.746
118.746
107.873
97.138
86.531
76.045
65.694
55.504
45.524
35.832
26.486
17.519
8.952
0.768
-7.067
-14.571
-21.76
-28.646
-35.223
-41.488
-47.43
-53.03
-58.286
-63.205
-67.812
-72.157
-76.282
-80.207
-83.944
-87.477
-90.774
-93.815
-96.586
-99.071
-101.266
-103.173
-104.796
-106.155
-107.268
-108.146
-108.796
-109.211
-109.384
-109.323
-109.043
-108.566
-107.926
-107.151
-106.265
-105.298
-104.274
-103.209
-102.122
-101.019
-99.903
-98.782
-97.665
-96.561
-95.483
-94.441
-93.438
-92.479
-91.569
-90.708
-89.898
-89.139
-88.429
-87.771
-87.164
-86.612
-86.117
-85.681
-85.305
-84.989
-84.733
-84.534
-84.391
-84.301
-84.26
-84.265
-84.314
-84.403
-84.53
-84.692
-84.887
-85.111
-85.362
-85.639
-85.937
-86.256
-86.591
-86.942
-87.305
-87.677
-88.058
-88.443
-88.832
-89.221
-89.61
-89.995
-90.375
-90.748
-91.112
-91.466
-91.809
-92.137
-92.452
-92.752
-93.037
-93.306
-93.56
-93.798
-94.022
-94.23
-94.424
-94.603
-94.767
-94.917
-95.052
-95.173
-95.281
-95.376
-95.459
-95.531
-95.592
-95.644
-95.688
-95.724
-95.755
-95.78
-95.802
-95.821
-95.84
-95.858
-95.878
-95.901
-95.928
-95.959
-95.997
-96.041
-96.092
-96.152
-96.22
-96.297
-96.385
-96.482
-96.592
-96.713
-96.847
-96.995
-97.158
-97.335
-97.528
-97.736
-97.961
-98.202
-98.459
-98.733
-99.024
-99.331
-99.655
-99.996
-100.354
-100.729
-101.12
-101.528
-101.953
-102.395
-102.853
-103.329
-103.821
-104.331
-104.859
-105.405
-105.969
-106.551
-107.151
-107.769
-108.404
-109.056
-109.725
-110.41
-111.11
-111.826
-112.556
-113.301
-114.059
-114.832
-115.618
-116.418
-117.231
-118.056
-118.894
-119.744
-120.607
-121.48
-122.365
-123.261
-124.167
-125.083
-126.008
-126.941
-127.881
-128.827
-129.778
-130.733
-131.692
-132.654
-133.618
-134.584
-135.552
-136.521
-137.493
-138.466
-139.441
-140.416
-141.393
-142.371
-143.349
-144.327
-145.304
-146.28
-147.254
-148.227
-149.196
-150.161
-151.121
-152.076
-153.025
-153.966
-154.899
-155.824
-156.74
-157.647
-158.544
-159.432
-160.309
-161.176
-162.032
-162.875
-163.706
-164.522
-165.323
-166.106
-166.872
-167.618
-168.342
-169.045
-169.724
-170.379
-171.008
-171.61
-172.184
-172.73
-173.247
-173.734
-174.192
-174.62
-175.019
-175.389
-175.73
-176.043
-176.327
-176.583
-176.812
-177.012
-177.185
-177.331
-177.45
-177.543
-177.611
-177.654
-177.676
-177.676
-177.657
-177.62
-177.568
-177.501
-177.423
-177.335
-177.239
-177.138
-177.034
-176.928
-176.822
-176.72
-176.621
-176.527
-176.44
-176.361
-176.289
-176.226
-176.172
-176.127
-176.093
-176.069
-176.056
-176.054
-176.064
-176.085
-176.118
-176.162
-176.216
-176.279
-176.351
-176.431
-176.516
-176.606
-176.699
-176.792
-176.885
-176.973
-177.056
-177.129
-177.191
-177.239
-177.268
-177.278
-177.265
-177.226
-177.161
-177.065
-176.937
-176.776
-176.578
-176.341
-176.065
-175.745
-175.381
-174.969
-174.508
-173.996
-173.431
-172.811
-172.134
-171.399
-170.602
-169.743
-168.82
-167.831
-166.775
-165.65
-164.456
-163.191
-161.857
-160.453
-158.978
-157.434
-155.82
-154.136
-152.384
-150.563
-148.673
-146.716
-144.692
-142.602
-140.447
-138.228
-135.946
-133.603
-131.201
-128.743
-126.23
-123.666
-121.053
-118.397
-115.701
-112.971
-110.212
-107.43
-104.635
-101.833
-99.033
-96.244
-93.474
-90.733
-88.029
-85.37
-82.764
-80.219
-77.742
-75.341
-73.027
-70.808
-68.694
-66.694
-64.817
-63.072
-61.466
-60.005
-58.693
-57.532
-56.525
-55.678
-55.001
-54.503
-54.187
-54.057
-54.112
-54.346
-54.748
-55.302
-55.982
-56.763
-57.623
-58.541
-59.505
-60.501
-61.512
-62.514
-63.475
-64.364
-65.153
-65.822
-66.354
-66.746
-67.014
-67.19
-67.333
-67.496
-67.713
-68.021
-68.457
-69.066
-69.909
-71.045
-72.512
-74.383
-76.765
-79.695
-83.149
-86.97
-90.839
-94.458
-97.572
-99.887
-101.087
-100.957
-99.425
-96.809
-93.792
-90.955
-88.732
-87.41
-87.18
-88.236
-90.504
-93.132
-94.652
-93.545
-88.326
-77.857
-61.079
-36.608
-3.474
38.159
87.402
142.847
202.262
263.569
323.466
376.544
419.022
448.521
463.967
468.349
462.312
442.381
405.924
346.117
258.678
150.253
30.723
-81.865
-165.848
-212.47
-221.112
-200.964
-170.278
-139.622
-113.14
-90.642
-66.4
-38.966
-10.694
15.537
35.638
48.163
54.09
54.665
51.773
47.118
41.853
37.377
34.865
34.777
37.254
42.09
48.678
56.393
64.585
72.443
79.42
85.333
90.136
93.989
97.162
99.895
102.505
105.37
108.718
112.644
117.17
122.242
127.829
133.93
140.512
147.505
154.828
162.42
170.24
178.261
186.445
194.73
203.043
211.331
219.569
227.742
235.843
243.86
251.768
259.548
267.192
274.695
282.064
289.301
296.402
303.37
310.21
316.931
323.551
330.077
336.508
342.844
349.084
355.231
361.292
367.274
373.18
379.014
384.784
390.495
396.156
401.774
407.353
412.897
418.413
423.904
429.38
434.849
440.318
445.794
451.286
456.801
462.348
467.934
473.562
479.237
484.964
490.747
496.595
502.511
508.491
514.529
520.616
526.739
532.881
539.021
545.129
551.178
557.144
563.004
568.741
574.339
579.782
585.056
590.139
595.021
599.702
604.188
608.489
612.62
616.597
620.448
624.209
627.909
631.565
635.18
638.747
642.254
645.679
649
652.193
655.219
658.024
660.551
662.726
664.476
665.733
666.41
666.414
665.66
664.083
661.638
658.296
654.033
648.835
642.692
635.607
627.603
618.722
609.008
598.535
587.377
575.606
563.32
550.639
537.671
524.505
511.224
497.909
484.656
471.591
458.835
446.464
434.58
423.322
412.797
403.09
394.256
386.266
379.082
372.755
367.175
362.01
357.202
352.844
348.822
345.332
341.827
336.604
329.922
323.336
319.485
323.049
334.396
349.215
361.388
363.439
352.998
334.427
315.535
303.71
302.496
310.46
321.419
330.614
335.618
335.478
333.299
331.222
329.814
330.099
331.214
332.422
333.985
335.713
337.667
340.042
342.67
345.401
348.21
351.028
353.805
356.546
359.246
361.888
364.477
367.029
369.539
372.007
374.433
376.802
379.096
381.304
383.414
385.414
387.291
389.028
390.61
392.033
393.302
394.423
395.394
396.202
396.823
397.234
397.425
397.398
397.157
396.7
396.024
395.131
394.038
392.768
391.325
389.686
387.802
385.623
383.119
380.275
377.086
373.543
369.627
365.312
360.578
355.417
349.817
343.758
337.196
330.085
322.408
314.189
305.485
296.351
286.823
276.927
266.684
256.127
245.293
234.219
222.929
211.44
199.782
187.994
176.142
164.29
152.481
140.726
129.015
117.341
105.713
94.143
82.645
71.223
59.881
48.633
37.505
26.526
15.712
5.07
-5.405
-15.718
-25.865
-35.83
-45.589
-55.124
-64.423
-73.477
-82.275
-90.804
-99.055
-107.03
-114.736
-122.184
-129.378
-136.321
-143.015
-149.462
-155.668
-161.643
-167.395
-172.934
-178.267
-183.405
-188.358
-193.14
-197.759
-202.224
-206.542
-210.718
-214.762
-218.679
-222.479
-226.167
-229.75
-233.235
-236.628
-239.937
-243.166
-246.32
-249.401
-252.414
-255.362
-258.247
-261.071
-263.836
-266.543
-269.194
-271.79
-274.332
-276.82
-279.255
-281.639
-283.97
-286.251
-288.482
-290.664
-292.798
-294.885
-296.926
-298.924
-300.879
-302.793
-304.666
-306.501
-308.299
-310.061
-311.789
-313.484
-315.148
-316.783
-318.392
-319.975
-321.535
-323.074
-324.594
-326.096
-327.583
-329.057
-330.517
-331.967
-333.406
-334.837
-336.259
-337.674
-339.081
-340.481
-341.872
-343.255
-344.627
-345.989
-347.337
-348.671
-349.988
-351.288
-352.569
-353.829
-355.066
-356.28
-357.467
-358.627
-359.757
-360.855
-361.919
-362.948
-363.939
-364.892
-365.804
-366.674
-367.503
-368.29
-369.033
-369.729
-370.377
-370.977
-371.528
-372.033
-372.488
-372.889
-373.245
-373.564
-373.852
-374.12
-374.359
-374.555
-374.721
-374.873
-374.977
-375.012
-374.96
-374.792
-374.532
-374.23
-373.859
-373.372
-372.896
-372.581
-372.338
-372.176
-372.123
-371.857
-372.246
-374.137
-376.32
-378.43
-378.248
-373.118
-365.979
-358.791
-354.47
-357.023
-362.906
-369.113
-373.584
-372.918
-369.545
-365.933
-362.63
-361.137
-360.584
-359.85
-359.148
-358.338
-357.494
-356.844
-356.243
-355.57
-354.867
-354.145
-353.39
-352.607
-351.807
-350.996
-350.198
-349.441
-348.716
-348.016
-347.347
-346.708
-346.103
-345.535
-345.002
-344.503
-344.04
-343.616
-343.231
-342.887
-342.583
-342.318
-342.092
-341.903
-341.751
-341.632
-341.543
-341.483
-341.446
-341.429
-341.428
-341.439
-341.456
-341.474
-341.488
-341.491
-341.477
-341.439
-341.37
-341.263
-341.112
-340.909
-340.647
-340.319
-339.918
-339.439
-338.873
-338.215
-337.457
-336.592
-335.613
-334.516
-333.296
-331.949
-330.471
-328.858
-327.107
-325.217
-323.187
-321.014
-318.697
-316.235
-313.627
-310.878
-307.993
-304.979
-301.839
-298.575
-295.19
-291.691
-288.083
-284.376
-280.576
-276.69
-272.729
-268.71
-264.651
-260.573
-256.492
-252.421
-248.37
-244.346
-240.367
-236.465
-232.668
-229.013
-225.518
-222.18
-219.008
-216.019
-213.226
-210.664
-208.326
-206.14
-204.137
-202.429
-201.117
-200.342
-200.1
-200.174
-200.48
-201.092
-201.882
-202.616
-203.014
-202.628
-201.424
-199.888
-198.269
-196.606
-195.116
-194.019
-193.657
-194.658
-197.047
-200.157
-203.564
-207.019
-210.233
-213.086
-215.309
-216.335
-216.113
-215.133
-213.724
-212.158
-210.651
-209.187
-207.906
-207.15
-207.006
-207.393
-208.307
-209.654
-211.36
-213.392
-215.491
-217.336
-218.693
-219.247
-218.66
-216.752
-213.459
-209.029
-204.075
-199.206
-194.931
-191.719
-189.993
-189.995
-191.605
-194.041
-195.887
-195.465
-191.054
-181.07
-163.919
-138.179
-103.026
-58.476
-5.533
53.828
116.877
180.434
240.769
293.81
335.618
362.507
371.294
360.978
333.007
289.514
233.628
165.786
83.384
-11.731
-114.228
-212.089
-287.401
-331.177
-340.96
-321.877
-287.679
-245.021
-199.727
-158.219
-121.629
-96.006
-83.536
-79.416
-81.086
-83.128
-82.797
-83.219
-85.038
-88.514
-93.308
-96.409
-96.415
-93.491
-87.925
-80.789
-73.229
-65.92
-59.368
-54.011
-49.978
-47.19
-45.544
-44.802
-44.591
-44.519
-44.291
-43.719
-42.745
-41.401
-39.701
-37.652
-35.289
-32.676
-29.875
-26.93
-23.863
-20.674
-17.374
-14.003
-10.606
-7.234
-3.934
-0.728
2.373
5.358
8.22
10.956
13.563
16.051
18.437
20.727
22.929
25.048
27.092
29.082
31.036
32.975
34.911
36.853
38.81
40.795
42.824
44.909
47.064
49.305
51.655
54.149
56.821
59.696
62.786
66.096
69.63
73.394
77.393
81.628
86.088
90.76
95.636
100.716
105.996
111.449
117.033
122.68
128.329
133.936
139.473
144.916
150.248
155.458
160.552
165.557
170.521
175.478
180.446
185.423
190.417
195.464
200.63
206.005
211.671
217.698
224.145
231.083
238.57
246.626
255.237
264.342
273.85
283.692
293.818
304.187
314.752
325.436
336.118
346.665
356.933
366.766
375.994
384.419
391.843
398.122
403.156
406.89
409.304
410.36
410.004
408.188
404.874
400.041
393.716
385.947
376.801
366.395
354.879
342.444
329.309
315.657
301.641
287.398
273.048
258.724
244.58
230.77
217.438
204.73
192.756
181.6
171.332
161.974
153.512
145.903
139.069
132.935
127.442
122.534
118.148
114.217
110.645
107.328
104.171
101.078
97.968
94.785
91.477
88.015
84.394
80.623
76.731
72.755
68.72
64.65
60.578
56.535
52.575
48.758
45.133
41.74
38.615
35.774
33.234
31.004
29.077
27.437
26.064
24.933
24.024
23.32
22.798
22.434
22.195
22.046
21.958
21.908
21.876
21.849
21.812
21.756
21.675
21.571
21.445
21.295
21.122
20.923
20.697
20.446
20.174
19.884
19.579
19.26
18.93
18.592
18.247
17.898
17.544
17.186
16.824
16.46
16.096
15.735
15.38
15.032
14.694
14.368
14.057
13.761
13.482
13.22
12.974
12.746
12.535
12.341
12.163
11.999
11.849
11.711
11.582
11.462
11.346
11.232
11.118
11.001
10.878
10.747
10.605
10.448
10.275
10.083
9.869
9.633
9.371
9.082
8.765
8.419
8.044
7.637
7.2
6.733
6.236
5.71
5.155
4.574
3.967
3.335
2.68
2.005
1.31
0.598
-0.129
-0.869
-1.619
-2.377
-3.14
-3.906
-4.672
-5.435
-6.194
-6.945
-7.687
-8.418
-9.137
-9.841
-10.53
-11.203
-11.859
-12.498
-13.12
-13.725
-14.314
-14.888
-15.447
-15.993
-16.527
-17.049
-17.561
-18.064
-18.558
-19.045
-19.526
-20.001
-20.471
-20.938
-21.403
-21.866
-22.329
-22.792
-23.257
-23.725
-24.196
-24.671
-25.151
-25.637
-26.128
-26.624
-27.126
-27.634
-28.147
-28.664
-29.184
-29.706
-30.229
-30.751
-31.27
-31.785
-32.295
-32.798
-33.292
-33.778
-34.253
-34.718
-35.172
-35.614
-36.044
-36.462
-36.868
-37.261
-37.641
-38.009
-38.365
-38.708
-39.04
-39.36
-39.668
-39.966
-40.254
-40.532
-40.801
-41.062
-41.317
-41.565
-41.81
-42.052
-42.293
-42.536
-42.781
-43.031
-43.287
-43.551
-43.825
-44.109
-44.405
-44.714
-45.037
-45.373
-45.724
-46.091
-46.472
-46.869
-47.28
-47.708
-48.15
-48.607
-49.078
-49.564
-50.064
-50.578
-51.105
-51.645
-52.198
-52.763
-53.339
-53.926
-54.523
-55.129
-55.743
-56.363
-56.988
-57.618
-58.25
-58.884
-59.518
-60.152
-60.783
-61.41
-62.034
-62.651
-63.261
-63.864
-64.457
-65.039
-65.61
-66.167
-66.71
-67.237
-67.747
-68.238
-68.709
-69.157
-69.582
-69.98
-70.351
-70.692
-71.001
-71.275
-71.514
-71.715
-71.875
-71.993
-72.067
-72.095
-72.074
-72.004
-71.882
-71.707
-71.477
-71.19
-70.847
-70.444
-69.983
-69.461
-68.879
-68.236
-67.532
-66.768
-65.944
-65.06
-64.117
-63.116
-62.057
-60.943
-59.775
-58.554
-57.283
-55.962
-54.596
-53.185
-51.733
-50.243
-48.717
-47.157
-45.568
-43.953
-42.314
-40.654
-38.977
-37.286
-35.583
-33.873
-32.156
-30.437
-28.717
-26.998
-25.283
-23.571
-21.866
-20.167
-18.475
-16.792
-15.119
-13.455
-11.801
-10.159
-8.527
-6.907
-5.299
-3.701
-2.115
-0.54
1.025
2.58
4.125
5.662
7.191
8.712
10.226
11.735
13.24
14.74
16.237
17.732
19.226
20.719
22.211
23.701
25.189
26.673
28.152
29.624
31.088
32.54
33.981
35.407
36.818
38.211
39.585
40.939
42.27
43.578
44.859
46.113
47.336
48.528
49.686
50.81
51.898
52.948
53.958
54.928
55.855
56.738
57.575
58.364
59.105
59.796
60.439
61.033
61.58
62.084
62.546
62.972
63.367
63.733
64.075
64.397
64.703
64.997
65.282
65.559
65.834
66.109
66.392
66.689
67.007
67.353
67.736
68.163
68.642
69.183
69.79
70.467
71.22
72.057
72.986
74.02
75.168
76.433
77.816
79.321
80.942
82.672
84.494
86.383
88.321
90.298
92.31
94.364
96.465
98.614
100.815
103.072
105.392
107.785
110.253
112.792
115.411
118.126
120.967
123.987
127.214
130.652
134.294
138.117
142.087
146.174
150.323
154.468
158.546
162.5
166.286
169.878
173.231
176.287
178.975
181.205
182.915
184.078
184.673
184.693
184.147
183.05
181.459
179.456
177.113
174.493
171.649
168.62
165.471
162.282
159.135
156.121
153.306
150.738
148.471
146.556
145.036
143.938
143.25
142.935
142.963
143.293
143.89
144.705
145.662
146.696
147.737
148.707
149.534
150.14
150.438
150.356
149.799
148.637
146.835
144.466
141.707
138.895
136.361
134.343
133.144
133.148
134.541
137.23
140.791
144.385
147.211
148.852
148.968
147.126
143.246
137.821
131.961
127.586
126.775
131.035
141.795
160.654
188.771
226.548
273.434
327.558
386.234
446.809
506.122
560.201
604.938
636.391
651.09
647.637
626.85
589.767
538.484
473.386
392.045
295.777
189.447
84.133
-2.6
-59.322
-82.691
-78.33
-60.726
-40.301
-21.952
-6.546
9.715
27.393
44.362
58.425
66.252
66.801
61.384
51.577
39.685
28.078
17.908
9.883
4.751
2.615
3.183
6.01
10.093
14.193
17.66
20.134
21.289
21.149
19.805
17.35
14.176
10.781
7.459
4.421
1.813
-0.367
-2.093
-3.316
-4.075
-4.414
-4.368
-3.981
-3.271
-2.238
-0.902
0.704
2.543
4.564
6.718
8.961
11.25
13.553
15.85
18.121
20.359
22.556
24.715
26.842
28.949
31.041
33.127
35.214
37.314
39.442
41.611
43.835
46.127
48.499
50.96
53.52
56.19
58.975
61.883
64.918
68.083
71.383
74.824
78.411
82.149
86.043
90.097
94.315
98.702
103.263
108
112.915
118.007
123.274
128.718
134.336
140.13
146.094
152.218
158.489
164.891
171.404
178.005
184.665
191.346
198.017
204.646
211.206
217.673
224.018
230.21
236.226
242.037
247.623
252.979
258.097
262.977
267.636
272.092
276.373
280.52
284.551
288.475
292.3
296.023
299.644
303.158
306.542
309.772
312.819
315.642
318.192
320.408
322.187
323.424
324.013
323.835
322.805
320.853
317.905
313.898
308.785
302.536
295.148
286.634
276.994
266.24
254.405
241.555
227.812
213.317
198.203
182.615
166.685
150.543
134.34
118.23
102.337
86.759
71.584
56.881
42.748
29.29
16.578
4.649
-6.506
-16.919
-26.61
-35.603
-43.937
-51.666
-58.869
-65.641
-72.039
-78.101
-83.862
-89.353
-94.628
-99.758
-104.786
-109.73
-114.593
-119.363
-124.043
-128.638
-133.132
-137.489
-141.665
-145.601
-149.27
-152.664
-155.77
-158.584
-161.092
-163.272
-165.122
-166.656
-167.885
-168.826
-169.489
-169.882
-170.03
-169.967
-169.73
-169.362
-168.893
-168.343
-167.734
-167.084
-166.413
-165.736
-165.064
-164.4
-163.75
-163.122
-162.522
-161.96
-161.438
-160.956
-160.511
-160.103
-159.73
-159.391
-159.086
-158.814
-158.574
-158.366
-158.192
-158.054
-157.953
-157.887
-157.855
-157.855
-157.887
-157.947
-158.033
-158.143
-158.273
-158.423
-158.589
-158.772
-158.968
-159.177
-159.397
-159.628
-159.868
-160.117
-160.375
-160.64
-160.914
-161.196
-161.486
-161.785
-162.093
-162.41
-162.738
-163.077
-163.426
-163.787
-164.158
-164.54
-164.932
-165.335
-165.747
-166.168
-166.597
-167.034
-167.477
-167.927
-168.383
-168.844
-169.308
-169.775
-170.243
-170.712
-171.179
-171.644
-172.105
-172.559
-173.007
-173.445
-173.873
-174.29
-174.693
-175.083
-175.456
-175.812
-176.15
-176.468
-176.766
-177.042
-177.297
-177.529
-177.739
-177.926
-178.092
-178.237
-178.361
-178.465
-178.55
-178.616
-178.664
-178.695
-178.709
-178.708
-178.691
-178.661
-178.618
-178.562
-178.495
-178.417
-178.328
-178.23
-178.123
-178.006
-177.88
-177.745
-177.602
-177.451
-177.292
-177.124
-176.949
-176.765
-176.574
-176.373
-176.164
-175.944
-175.713
-175.471
-175.217
-174.95
-174.669
-174.374
-174.065
-173.741
-173.401
-173.046
-172.675
-172.288
-171.884
-171.465
-171.029
-170.579
-170.113
-169.634
-169.143
-168.641
-168.129
-167.608
-167.081
-166.549
-166.014
-165.478
-164.941
-164.408
-163.88
-163.359
-162.847
-162.348
-161.863
-161.395
-160.946
-160.518
-160.112
-159.73
-159.374
-159.044
-158.743
-158.471
-158.229
-158.018
-157.837
-157.688
-157.569
-157.48
-157.419
-157.386
-157.378
-157.393
-157.429
-157.483
-157.552
-157.632
-157.72
-157.812
-157.903
-157.988
-158.064
-158.124
-158.165
-158.18
-158.164
-158.113
-158.022
-157.886
-157.701
-157.463
-157.166
-156.808
-156.385
-155.892
-155.328
-154.689
-153.972
-153.176
-152.298
-151.339
-150.297
-149.171
-147.962
-146.672
-145.3
-143.848
-142.319
-140.716
-139.041
-137.298
-135.492
-133.627
-131.707
-129.738
-127.726
-125.675
-123.591
-121.479
-119.346
-117.195
-115.033
-112.865
-110.694
-108.527
-106.367
-104.22
-102.088
-99.976
-97.888
-95.826
-93.795
-91.796
-89.831
-87.904
-86.016
-84.167
-82.36
-80.595
-78.871
-77.189
-75.548
-73.947
-72.386
-70.862
-69.373
-67.917
-66.494
-65.099
-63.732
-62.389
-61.071
-59.773
-58.496
-57.238
-55.997
-54.774
-53.566
-52.373
-51.197
-50.035
-48.888
-47.757
-46.642
-45.543
-44.462
-43.4
-42.356
-41.333
-40.333
-39.356
-38.405
-37.481
-36.586
-35.723
-34.893
-34.1
-33.347
-32.635
-31.968
-31.348
-30.777
-30.258
-29.793
-29.382
-29.028
-28.73
-28.489
-28.305
-28.179
-28.108
-28.093
-28.131
-28.22
-28.359
-28.546
-28.775
-29.044
-29.35
-29.689
-30.057
-30.448
-30.857
-31.28
-31.713
-32.15
-32.585
-33.013
-33.427
-33.82
-34.189
-34.525
-34.82
-35.066
-35.255
-35.379
-35.433
-35.41
-35.305
-35.11
-34.821
-34.435
-33.95
-33.365
-32.671
-31.865
-30.94
-29.896
-28.743
-27.487
-26.132
-24.682
-23.145
-21.531
-19.855
-18.123
-16.331
-14.477
-12.558
-10.582
-8.566
-6.527
-4.483
-2.442
-0.402
1.636
3.659
5.665
7.656
9.638
11.626
13.61
15.55
17.412
19.164
20.785
22.274
23.627
24.839
25.9
26.789
27.493
28.002
28.3
28.359
28.152
27.64
26.828
25.759
24.48
23.046
21.501
19.871
18.186
16.48
14.794
13.169
11.647
10.269
9.082
8.135
7.483
7.173
7.212
7.563
8.178
8.992
9.948
10.986
12.028
12.989
13.784
14.35
14.603
14.416
13.723
12.519
10.894
9.086
7.348
5.877
4.952
4.938
6.061
8.415
11.757
15.429
18.824
21.497
23.006
22.948
21.089
17.463
12.878
8.951
7.362
9.654
17.55
32.872
57.135
91.622
135.69
186.396
242.109
301.588
364.107
430.791
496.975
553.282
590.657
598.656
575.093
527.741
465.219
397.087
327.601
252.262
167.662
75.409
-17.586
-97.68
-152.11
-175.656
-168.547
-137.166
-91.412
-40.678
5.097
39.206
59.245
67.196
69.863
72.385
77.322
84.309
89.02
88.882
83.714
74.482
64.313
55.818
49.722
46.157
44.73
44.837
46.298
48.99
52.39
55.747
58.584
60.685
62.024
62.825
63.281
63.488
63.642
64.014
64.744
65.885
67.441
69.301
71.354
73.521
75.682
77.7
79.497
81.014
82.21
83.095
83.673
83.955
83.999
83.853
83.555
83.149
82.656
82.097
81.52
80.976
80.518
80.215
80.115
80.253
80.67
81.381
82.386
83.67
85.19
86.908
88.803
90.859
93.07
95.436
97.948
100.597
103.383
106.294
109.324
112.467
115.716
119.075
122.558
126.183
129.984
133.986
138.206
142.653
147.336
152.257
157.424
162.836
168.479
174.343
180.417
186.687
193.141
199.756
206.496
213.327
220.211
227.12
234.04
240.953
247.838
254.677
261.448
268.142
274.768
281.324
287.807
294.213
300.535
306.787
313.003
319.202
325.393
331.568
337.689
343.725
349.645
355.406
360.956
366.225
371.115
375.551
379.472
382.816
385.525
387.522
388.701
388.981
388.308
386.645
383.991
380.344
375.704
370.1
363.583
356.23
348.148
339.419
330.105
320.275
309.993
299.343
288.434
277.352
266.159
254.913
243.655
232.427
221.275
210.221
199.262
188.386
177.562
166.779
156.046
145.37
134.76
124.221
113.745
103.343
93.037
82.846
72.791
62.89
53.156
43.614
34.298
25.246
16.498
8.082
0.016
-7.685
-15.008
-21.943
-28.483
-34.63
-40.391
-45.774
-50.785
-55.429
-59.713
-63.648
-67.249
-70.533
-73.515
-76.214
-78.643
-80.819
-82.76
-84.482
-85.999
-87.327
-88.478
-89.466
-90.309
-91.02
-91.615
-92.109
-92.515
-92.849
-93.124
-93.351
-93.543
-93.709
-93.86
-94.002
-94.143
-94.291
-94.449
-94.623
-94.816
-95.032
-95.272
-95.539
-95.833
-96.154
-96.502
-96.877
-97.277
-97.7
-98.145
-98.608
-99.089
-99.584
-100.09
-100.605
-101.125
-101.648
-102.171
-102.69
-103.203
-103.706
-104.198
-104.675
-105.136
-105.578
-106
-106.402
-106.781
-107.139
-107.475
-107.79
-108.084
-108.358
-108.614
-108.852
-109.074
-109.282
-109.477
-109.661
-109.835
-110.003
-110.164
-110.322
-110.478
-110.633
-110.789
-110.946
-111.107
-111.272
-111.442
-111.618
-111.801
-111.991
-112.189
-112.396
-112.611
-112.836
-113.069
-113.311
-113.562
-113.82
-114.084
-114.353
-114.627
-114.904
-115.182
-115.461
-115.738
-116.013
-116.285
-116.552
-116.813
-117.069
-117.317
-117.559
-117.794
-118.023
-118.245
-118.462
-118.675
-118.884
-119.091
-119.296
-119.502
-119.709
-119.918
-120.131
-120.349
-120.572
-120.803
-121.042
-121.291
-121.551
-121.824
-122.111
-122.414
-122.734
-123.072
-123.429
-123.807
-124.206
-124.628
-125.071
-125.537
-126.025
-126.534
-127.063
-127.61
-128.173
-128.751
-129.339
-129.936
-130.538
-131.141
-131.744
-132.342
-132.931
-133.509
-134.073
-134.619
-135.143
-135.644
-136.118
-136.562
-136.973
-137.349
-137.686
-137.983
-138.235
-138.442
-138.6
-138.708
-138.763
-138.764
-138.71
-138.6
-138.433
-138.209
-137.929
-137.594
-137.205
-136.764
-136.273
-135.735
-135.152
-134.528
-133.865
-133.166
-132.436
-131.678
-130.893
-130.087
-129.261
-128.419
-127.564
-126.698
-125.824
-124.946
-124.066
-123.186
-122.309
-121.438
-120.575
-119.723
-118.883
-118.058
-117.25
-116.459
-115.686
-114.934
-114.201
-113.489
-112.796
-112.123
-111.467
-110.828
-110.204
-109.593
-108.993
-108.403
-107.819
-107.24
-106.663
-106.086
-105.508
-104.926
-104.339
-103.744
-103.139
-102.522
-101.892
-101.247
-100.584
-99.902
-99.199
-98.474
-97.725
-96.95
-96.148
-95.318
-94.458
-93.567
-92.645
-91.691
-90.705
-89.688
-88.639
-87.559
-86.449
-85.311
-84.146
-82.956
-81.741
-80.505
-79.248
-77.972
-76.681
-75.375
-74.058
-72.731
-71.398
-70.062
-68.724
-67.389
-66.06
-64.739
-63.43
-62.137
-60.864
-59.614
-58.392
-57.202
-56.048
-54.936
-53.869
-52.852
-51.889
-50.984
-50.141
-49.365
-48.658
-48.024
-47.466
-46.989
-46.595
-46.286
-46.066
-45.938
-45.902
-45.961
-46.117
-46.37
-46.721
-47.17
-47.718
-48.364
-49.107
-49.946
-50.879
-51.905
-53.018
-54.217
-55.497
-56.853
-58.28
-59.773
-61.325
-62.93
-64.582
-66.274
-67.999
-69.749
-71.518
-73.297
-75.079
-76.856
-78.62
-80.364
-82.08
-83.761
-85.4
-86.991
-88.526
-90.001
-91.408
-92.744
-94.002
-95.18
-96.273
-97.279
-98.195
-99.021
-99.757
-100.402
-100.96
-101.433
-101.824
-102.137
-102.378
-102.552
-102.667
-102.731
-102.751
-102.737
-102.7
-102.653
-102.606
-102.572
-102.564
-102.596
-102.681
-102.831
-103.059
-103.374
-103.789
-104.315
-104.963
-105.745
-106.672
-107.753
-108.998
-110.415
-112.011
-113.791
-115.754
-117.899
-120.225
-122.733
-125.426
-128.307
-131.374
-134.622
-138.046
-141.632
-145.365
-149.222
-153.168
-157.165
-161.179
-165.178
-169.137
-173.03
-176.826
-180.487
-183.97
-187.234
-190.247
-192.984
-195.415
-197.53
-199.335
-200.86
-202.17
-203.325
-204.368
-205.345
-206.301
-207.292
-208.385
-209.643
-211.119
-212.883
-215.025
-217.587
-220.528
-223.683
-226.757
-229.421
-231.364
-232.24
-231.619
-229.199
-225.002
-219.37
-212.964
-206.512
-200.504
-195.399
-191.875
-190.321
-190.396
-191.071
-190.655
-187.267
-179.279
-164.909
-142.114
-109.106
-65.807
-14.253
43.925
107.177
174.833
247.874
321.486
386.393
433.617
452.717
441.879
408.888
360.73
305.84
246.429
175.434
90.915
-5.072
-102.852
-182.168
-229.235
-237.315
-208.679
-159.52
-105.502
-60.461
-33.967
-24.06
-24.886
-28.352
-27.507
-21.609
-12.913
-5.203
-0.537
1.806
3.156
5.385
9.292
14.565
21.101
28.322
35.314
41.572
46.756
50.683
53.519
55.36
56.105
55.882
55.017
53.79
52.49
51.304
50.261
49.41
48.845
48.609
48.703
49.116
49.809
50.767
52.001
53.522
55.31
57.309
59.459
61.707
64
66.295
68.542
70.695
72.728
74.629
76.396
78.036
79.552
80.943
82.213
83.367
84.414
85.375
86.269
87.108
87.908
88.69
89.477
90.304
91.201
92.187
93.285
94.522
95.918
97.493
99.257
101.205
103.332
105.64
108.138
110.846
113.783
116.95
120.346
123.967
127.793
131.813
136.007
140.338
144.781
149.334
154.011
158.854
163.919
169.236
174.825
180.696
186.849
193.299
200.061
207.14
214.553
222.317
230.454
239.013
248.021
257.471
267.328
277.524
287.963
298.576
309.3
320.076
330.856
341.583
352.196
362.654
372.908
382.897
392.553
401.785
410.509
418.676
426.26
433.259
439.693
445.563
450.861
455.592
459.753
463.344
466.364
468.803
470.65
471.914
472.624
472.819
472.54
471.804
470.607
468.943
466.801
464.175
461.066
457.462
453.341
448.695
443.524
437.835
431.644
424.94
417.691
409.876
401.482
392.522
383.037
373.069
362.659
351.866
340.755
329.417
317.967
306.499
295.09
283.817
272.75
261.983
251.639
241.816
232.59
224.016
216.118
208.915
202.43
196.65
191.542
187.045
183.069
179.545
176.431
173.675
171.231
169.035
166.997
165.049
163.146
161.248
159.334
157.382
155.364
153.28
151.152
149.016
146.925
144.911
142.985
141.159
139.442
137.848
136.4
135.106
133.959
132.954
132.084
131.343
130.73
130.229
129.811
129.446
129.099
128.742
128.362
127.945
127.477
126.95
126.355
125.688
124.955
124.157
123.292
122.359
121.357
120.285
119.149
117.956
116.709
115.415
114.075
112.693
111.273
109.815
108.322
106.793
105.225
103.62
101.979
100.302
98.592
96.851
95.081
93.282
91.458
89.61
87.739
85.846
83.931
81.994
80.037
78.058
76.06
74.041
72.003
69.946
67.87
65.777
63.665
61.537
59.391
57.23
55.054
52.864
50.66
48.446
46.221
43.988
41.749
39.506
37.259
35.012
32.766
30.522
28.283
26.051
23.827
21.614
19.415
17.231
15.066
12.922
10.801
8.707
6.642
4.608
2.608
0.645
-1.279
-3.162
-5.001
-6.794
-8.54
-10.235
-11.879
-13.469
-15.004
-16.483
-17.905
-19.268
-20.57
-21.812
-22.991
-24.106
-25.156
-26.14
-27.058
-27.907
-28.686
-29.396
-30.035
-30.602
-31.096
-31.517
-31.865
-32.137
-32.334
-32.455
-32.499
-32.465
-32.354
-32.165
-31.897
-31.55
-31.124
-30.617
-30.03
-29.362
-28.613
-27.781
-26.868
-25.872
-24.794
-23.634
-22.394
-21.073
-19.674
-18.198
-16.646
-15.02
-13.324
-11.56
-9.73
-7.839
-5.89
-3.888
-1.836
0.261
2.397
4.567
6.766
8.988
11.227
13.477
15.732
17.985
20.23
22.459
24.666
26.843
28.983
31.077
33.119
35.1
37.014
38.853
40.611
42.28
43.853
45.326
46.692
47.945
49.08
50.093
50.979
51.736
52.359
52.848
53.199
53.413
53.487
53.422
53.218
52.875
52.394
51.777
51.024
50.138
49.121
47.978
46.71
45.323
43.821
42.209
40.49
38.672
36.76
34.758
32.673
30.512
28.28
25.983
23.629
21.223
18.772
16.282
13.759
11.209
8.636
6.045
3.442
0.831
-1.784
-4.399
-7.01
-9.612
-12.201
-14.775
-17.329
-19.861
-22.366
-24.843
-27.289
-29.701
-32.076
-34.414
-36.712
-38.968
-41.18
-43.348
-45.47
-47.546
-49.575
-51.557
-53.491
-55.379
-57.221
-59.016
-60.765
-62.468
-64.125
-65.737
-67.303
-68.823
-70.298
-71.728
-73.114
-74.456
-75.756
-77.014
-78.231
-79.41
-80.55
-81.655
-82.724
-83.761
-84.768
-85.747
-86.7
-87.63
-88.54
-89.432
-90.308
-91.172
-92.025
-92.869
-93.706
-94.537
-95.365
-96.191
-97.018
-97.846
-98.679
-99.517
-100.362
-101.216
-102.081
-102.956
-103.845
-104.747
-105.663
-106.593
-107.539
-108.5
-109.475
-110.465
-111.469
-112.484
-113.51
-114.543
-115.582
-116.623
-117.664
-118.702
-119.734
-120.755
-121.764
-122.757
-123.731
-124.682
-125.607
-126.503
-127.367
-128.194
-128.981
-129.724
-130.421
-131.067
-131.659
-132.193
-132.667
-133.078
-133.422
-133.696
-133.898
-134.026
-134.076
-134.048
-133.941
-133.754
-133.485
-133.137
-132.709
-132.204
-131.622
-130.965
-130.235
-129.437
-128.571
-127.644
-126.657
-125.615
-124.524
-123.389
-122.216
-121.011
-119.781
-118.534
-117.279
-116.025
-114.782
-113.559
-112.366
-111.215
-110.114
-109.074
-108.105
-107.214
-106.41
-105.704
-105.104
-104.621
-104.263
-104.037
-103.951
-104.01
-104.22
-104.583
-105.1
-105.77
-106.596
-107.585
-108.741
-110.067
-111.564
-113.227
-115.05
-117.021
-119.122
-121.326
-123.608
-125.938
-128.293
-130.653
-132.996
-135.301
-137.537
-139.665
-141.65
-143.459
-145.071
-146.468
-147.642
-148.605
-149.39
-150.055
-150.656
-151.238
-151.844
-152.517
-153.315
-154.307
-155.566
-157.148
-159.13
-161.615
-164.64
-168.176
-172.083
-176.062
-179.789
-182.973
-185.286
-186.376
-186.04
-184.223
-181.176
-177.509
-173.838
-170.682
-168.47
-167.525
-167.958
-169.582
-171.617
-172.683
-171.167
-165.365
-153.753
-135.026
-108.026
-71.9
-26.538
27.349
87.477
149.989
211.3
268.516
321.027
369.44
411.833
442.736
453.628
437.675
393.076
324.559
239.844
143.11
38.96
-67.579
-167.983
-246.256
-292.279
-304.334
-288.739
-261.193
-232.449
-206.241
-182.37
-155.965
-125.939
-94.979
-66.241
-43.928
-29.757
-22.968
-22.477
-26.646
-33.719
-42.498
-51.575
-59.161
-64.253
-66.508
-65.882
-62.901
-58.33
-52.748
-46.933
-41.878
-38.08
-35.702
-34.761
-34.95
-35.928
-37.453
-39.171
-40.694
-41.831
-42.486
-42.626
-42.315
-41.567
-40.376
-38.794
-36.883
-34.707
-32.344
-29.845
-27.249
-24.623
-22.034
-19.532
-17.158
-14.927
-12.843
-10.914
-9.157
-7.591
-6.23
-5.074
-4.12
-3.355
-2.754
-2.295
-1.95
-1.687
-1.476
-1.293
-1.117
-0.933
-0.736
-0.515
-0.258
0.05
0.427
0.889
1.452
2.132
2.943
3.9
5.019
6.313
7.794
9.475
11.368
13.49
15.859
18.495
21.412
24.617
28.112
31.9
35.973
40.323
44.93
49.767
54.808
60.032
65.421
70.961
76.631
82.405
88.259
94.17
100.119
106.102
112.114
118.153
124.231
130.371
136.603
142.972
149.505
156.21
163.085
170.114
177.281
184.573
191.96
199.398
206.831
214.191
221.4
228.376
235.01
241.169
246.72
251.517
255.445
258.422
260.378
261.261
261.033
259.663
257.146
253.508
248.781
243.011
236.262
228.609
220.161
211.062
201.45
191.467
181.234
170.843
160.382
149.931
139.554
129.304
119.219
109.319
99.621
90.149
80.907
71.893
63.085
54.436
45.909
37.477
29.12
20.837
12.625
4.487
-3.565
-11.509
-19.32
-26.971
-34.436
-41.701
-48.744
-55.54
-62.061
-68.271
-74.144
-79.664
-84.817
-89.598
-94.005
-98.037
-101.702
-105.017
-107.995
-110.652
-113.002
-115.057
-116.832
-118.345
-119.614
-120.658
-121.496
-122.144
-122.619
-122.94
-123.122
-123.181
-123.133
-122.989
-122.764
-122.473
-122.128
-121.745
-121.336
-120.912
-120.487
-120.069
-119.671
-119.298
-118.96
-118.662
-118.408
-118.204
-118.052
-117.956
-117.915
-117.931
-118.003
-118.13
-118.312
-118.544
-118.826
-119.153
-119.522
-119.929
-120.37
-120.84
-121.335
-121.85
-122.379
-122.918
-123.462
-124.005
-124.541
-125.068
-125.579
-126.071
-126.54
-126.982
-127.393
-127.771
-128.112
-128.416
-128.68
-128.902
-129.083
-129.222
-129.319
-129.374
-129.389
-129.365
-129.302
-129.204
-129.073
-128.909
-128.717
-128.498
-128.256
-127.992
-127.711
-127.415
-127.108
-126.792
-126.47
-126.146
-125.822
-125.5
-125.183
-124.873
-124.571
-124.28
-124
-123.734
-123.482
-123.246
-123.026
-122.822
-122.634
-122.462
-122.305
-122.163
-122.034
-121.917
-121.811
-121.713
-121.623
-121.538
-121.456
-121.375
-121.292
-121.206
-121.114
-121.013
-120.9
-120.775
-120.634
-120.475
-120.297
-120.099
-119.878
-119.633
-119.364
-119.068
-118.746
-118.395
-118.016
-117.608
-117.171
-116.704
-116.209
-115.684
-115.132
-114.552
-113.946
-113.314
-112.658
-111.979
-111.279
-110.559
-109.82
-109.065
-108.296
-107.513
-106.72
-105.918
-105.108
-104.293
-103.472
-102.649
-101.822
-100.993
-100.163
-99.332
-98.5
-97.668
-96.835
-96.002
-95.167
-94.332
-93.495
-92.655
-91.811
-90.963
-90.109
-89.247
-88.377
-87.496
-86.603
-85.697
-84.776
-83.838
-82.88
-81.901
-80.899
-79.872
-78.818
-77.735
-76.622
-75.477
-74.3
-73.09
-71.846
-70.569
-69.258
-67.914
-66.537
-65.129
-63.69
-62.221
-60.725
-59.202
-57.655
-56.086
-54.497
-52.891
-51.271
-49.639
-47.998
-46.35
-44.7
-43.049
-41.402
-39.761
-38.129
-36.511
-34.909
-33.326
-31.766
-30.232
-28.725
-27.249
-25.805
-24.395
-23.021
-21.682
-20.38
-19.116
-17.888
-16.698
-15.543
-14.423
-13.337
-12.282
-11.258
-10.261
-9.29
-8.342
-7.415
-6.505
-5.611
-4.729
-3.856
-2.99
-2.127
-1.265
-0.401
0.469
1.347
2.235
3.137
4.053
4.987
5.939
6.91
7.902
8.914
9.947
10.998
12.069
13.156
14.257
15.372
16.495
17.626
18.759
19.891
21.018
22.136
23.241
24.327
25.391
26.426
27.429
28.395
29.318
30.194
31.019
31.787
32.496
33.14
33.716
34.22
34.649
35
35.272
35.461
35.568
35.59
35.529
35.385
35.16
34.854
34.471
34.014
33.485
32.89
32.232
31.517
30.748
29.933
29.078
28.188
27.27
26.332
25.381
24.424
23.469
22.522
21.592
20.685
19.808
18.969
18.173
17.429
16.742
16.117
15.561
15.079
14.674
14.35
14.111
13.957
13.89
13.91
14.019
14.214
14.494
14.858
15.302
15.823
16.417
17.079
17.803
18.582
19.408
20.273
21.168
22.083
23.007
23.93
24.839
25.724
26.571
27.37
28.108
28.774
29.358
29.848
30.235
30.507
30.655
30.67
30.541
30.262
29.825
29.223
28.453
27.513
26.403
25.122
23.668
22.037
20.226
18.237
16.075
13.745
11.26
8.634
5.893
3.071
0.202
-2.68
-5.542
-8.36
-11.106
-13.748
-16.254
-18.584
-20.701
-22.581
-24.202
-25.545
-26.607
-27.4
-27.967
-28.381
-28.72
-29.053
-29.43
-29.902
-30.526
-31.371
-32.515
-34.009
-35.872
-38.138
-40.872
-44.088
-47.725
-51.601
-55.35
-58.627
-61.208
-62.785
-62.962
-61.486
-58.253
-53.45
-47.774
-41.749
-35.456
-29.368
-24.198
-20.131
-17.215
-14.112
-7.517
3.82
19.724
39.22
58.865
79.289
104.554
138.887
189.043
257.156
338.88
426.397
505.974
563.454
590.38
584.149
549.89
498.211
438.026
374.548
309.122
239.969
167.011
93.401
24.164
-35.154
-80.955
-112.228
-129.41
-133.628
-126.177
-108.969
-84.867
-56.96
-28.215
-0.853
23.714
44.141
59.355
69.148
74.027
75.016
73.514
70.568
66.978
63.881
62.221
62.426
64.603
68.395
73.124
78.299
83.409
87.708
90.665
92.015
91.641
89.715
86.551
82.413
77.646
72.679
67.82
63.276
59.188
55.603
52.543
50.041
48.088
46.647
45.698
45.223
45.203
45.618
46.43
47.569
48.959
50.524
52.184
53.879
55.56
57.183
58.716
60.146
61.466
62.677
63.789
64.809
65.748
66.627
67.465
68.289
69.131
70.025
71.01
72.12
73.379
74.812
76.434
78.26
80.301
82.564
85.051
87.765
90.71
93.889
97.306
100.964
104.864
109.006
113.39
118.014
122.878
127.982
133.326
138.906
144.718
150.758
157.021
163.502
170.197
177.096
184.184
191.442
198.848
206.376
213.997
221.676
229.372
237.044
244.655
252.168
259.556
266.79
273.847
280.698
287.314
293.676
299.776
305.616
311.198
316.53
321.617
326.473
331.133
335.624
339.968
344.177
348.25
352.18
355.961
359.585
363.04
366.286
369.267
371.909
374.136
375.877
377.065
377.62
377.444
376.441
374.529
371.646
367.737
362.752
356.649
349.383
340.946
331.37
320.714
309.068
296.536
283.212
269.201
254.632
239.648
224.4
209.035
193.689
178.508
163.653
149.282
135.551
122.577
110.429
99.156
88.779
79.298
70.717
63.021
56.169
50.111
44.795
40.152
36.114
32.593
29.464
26.609
23.915
21.291
18.684
16.047
13.344
10.561
7.685
4.713
1.662
-1.458
-4.64
-7.862
-11.101
-14.316
-17.442
-20.422
-23.211
-25.773
-28.091
-30.153
-31.949
-33.481
-34.762
-35.809
-36.641
-37.277
-37.726
-38.002
-38.124
-38.116
-38.016
-37.854
-37.651
-37.415
-37.166
-36.928
-36.724
-36.571
-36.466
-36.381
-36.311
-36.282
-36.277
-36.239
-36.123
-35.879
-35.498
-35.049
-34.552
-33.928
-33.259
-32.818
-32.66
-32.708
-33
-33.237
-33.987
-36.954
-41.74
-46.791
-49.5
-45.003
-33.682
-20.396
-10.017
-9.458
-19.042
-32.254
-44.065
-49.012
-46.236
-40.616
-35.118
-31.801
-31.245
-31.459
-31.573
-31.644
-31.594
-31.714
-32.06
-32.367
-32.582
-32.756
-32.857
-32.895
-32.937
-33.039
-33.275
-33.698
-34.252
-34.901
-35.713
-36.614
-37.333
-37.823
-38.162
-38.31
-38.567
-38.372
-36.045
-31.997
-27.757
-25.912
-31.262
-43.389
-57.507
-68.804
-70.451
-62.187
-50.43
-40.13
-36.683
-40.891
-47.942
-54.921
-59.787
-61.979
-63.458
-65.08
-66.78
-68.617
-70.286
-71.717
-73.167
-74.708
-76.29
-77.913
-79.584
-81.286
-83.003
-84.703
-86.334
-87.879
-89.352
-90.755
-92.08
-93.323
-94.48
-95.548
-96.53
-97.427
-98.233
-98.948
-99.571
-100.102
-100.544
-100.9
-101.17
-101.36
-101.472
-101.51
-101.479
-101.383
-101.227
-101.017
-100.757
-100.453
-100.11
-99.734
-99.33
-98.905
-98.465
-98.014
-97.558
-97.102
-96.652
-96.211
-95.784
-95.374
-94.985
-94.619
-94.278
-93.964
-93.678
-93.421
-93.191
-92.989
-92.813
-92.661
-92.532
-92.423
-92.331
-92.254
-92.188
-92.13
-92.077
-92.025
-91.971
-91.912
-91.844
-91.764
-91.668
-91.554
-91.417
-91.256
-91.068
-90.851
-90.604
-90.324
-90.01
-89.663
-89.282
-88.868
-88.42
-87.94
-87.43
-86.892
-86.329
-85.742
-85.134
-84.51
-83.873
-83.225
-82.57
-81.912
-81.254
-80.599
-79.951
-79.313
-78.688
-78.078
-77.487
-76.918
-76.373
-75.853
-75.362
-74.9
-74.47
-74.071
-73.705
-73.371
-73.069
-72.8
-72.561
-72.351
-72.17
-72.014
-71.882
-71.771
-71.678
-71.6
-71.534
-71.477
-71.427
-71.379
-71.331
-71.28
-71.225
-71.161
-71.088
-71.002
-70.903
-70.788
-70.655
-70.504
-70.332
-70.139
-69.924
-69.687
-69.427
-69.145
-68.842
-68.52
-68.179
-67.821
-67.449
-67.065
-66.671
-66.27
-65.865
-65.46
-65.056
-64.659
-64.27
-63.895
-63.535
-63.195
-62.876
-62.582
-62.315
-62.076
-61.867
-61.691
-61.548
-61.44
-61.369
-61.336
-61.343
-61.39
-61.479
-61.61
-61.782
-61.996
-62.249
-62.542
-62.871
-63.234
-63.631
-64.059
-64.514
-64.995
-65.5
-66.025
-66.569
-67.129
-67.7
-68.28
-68.864
-69.452
-70.039
-70.624
-71.204
-71.778
-72.347
-72.91
-73.467
-74.018
-74.561
-75.092
-75.611
-76.115
-76.6
-77.065
-77.504
-77.916
-78.304
-78.671
-79.024
-79.363
-79.682
-79.977
-80.244
-80.48
-80.679
-80.835
-80.934
-80.973
-80.958
-80.896
-80.798
-80.667
-80.496
-80.277
-79.996
-79.65
-79.25
-78.804
-78.313
-77.785
-77.238
-76.696
-76.203
-75.784
-75.433
-75.137
-74.876
-74.631
-74.407
-74.198
-73.996
-73.788
-73.538
-73.217
-72.815
-72.31
-71.666
-70.834
-69.734
-68.308
-66.55
-64.468
-62.087
-59.443
-56.55
-53.441
-50.174
-46.809
-43.431
-40.109
-36.891
-33.825
-30.977
-28.426
-26.28
-24.638
-23.547
-23.031
-23.097
-23.732
-24.938
-26.693
-28.944
-31.626
-34.657
-37.961
-41.495
-45.219
-49.08
-53.013
-56.924
-60.708
-64.295
-67.633
-70.673
-73.384
-75.716
-77.628
-79.105
-80.149
-80.782
-81.033
-80.903
-80.381
-79.471
-78.184
-76.574
-74.742
-72.767
-70.73
-68.732
-66.845
-65.193
-63.964
-63.254
-63.084
-63.38
-63.905
-64.475
-65.034
-65.421
-65.409
-64.906
-63.827
-62.361
-61.154
-60.679
-61.154
-62.839
-65.772
-69.755
-74.669
-79.932
-84.173
-86.113
-84.562
-78.161
-66.079
-47.705
-22.025
11.558
52.777
101.337
155.477
211.654
267.264
319.644
368.499
416.891
464.321
506.986
535.517
536.384
504.294
441.276
357.183
265.85
172.027
78.283
-14.06
-102.051
-171.647
-212.93
-220.726
-194.354
-147.839
-93.884
-43.734
-10.358
5.332
5.793
-4.533
-15.155
-21.609
-23.289
-20.726
-18.314
-17.8
-18.419
-19.254
-18.139
-14.292
-8.429
-1.396
5.554
11.628
16.707
20.673
23.429
25.011
25.471
25.027
24.099
22.99
21.873
20.887
20.105
19.58
19.381
19.523
19.964
20.68
21.645
22.832
24.235
25.832
27.586
29.465
31.429
33.433
35.437
37.396
39.269
41.025
42.646
44.117
45.432
46.59
47.596
48.463
49.207
49.841
50.381
50.839
51.235
51.586
51.913
52.236
52.574
52.943
53.361
53.844
54.407
55.062
55.822
56.696
57.694
58.828
60.108
61.547
63.157
64.95
66.937
69.128
71.534
74.167
77.034
80.14
83.49
87.091
90.947
95.067
99.454
104.103
109.008
114.159
119.541
125.136
130.921
136.865
142.936
149.107
155.348
161.646
167.982
174.338
180.694
187.026
193.318
199.568
205.774
211.933
218.043
224.101
230.111
236.099
242.079
248.056
254.029
259.971
265.845
271.62
277.253
282.696
287.895
292.77
297.231
301.215
304.661
307.518
309.737
311.23
311.924
311.763
310.697
308.705
305.78
301.907
297.096
291.379
284.801
277.439
269.388
260.705
251.44
241.628
231.295
220.516
209.368
197.916
186.241
174.41
162.497
150.597
138.786
127.108
115.603
104.275
93.12
82.17
71.472
61.085
51.09
41.528
32.425
23.815
15.703
8.086
0.941
-5.789
-12.151
-18.164
-23.841
-29.175
-34.151
-38.782
-43.091
-47.106
-50.878
-54.443
-57.823
-61.052
-64.139
-67.079
-69.856
-72.425
-74.747
-76.804
-78.587
-80.101
-81.357
-82.359
-83.111
-83.624
-83.895
-83.926
-83.723
-83.287
-82.628
-81.769
-80.736
-79.57
-78.308
-76.981
-75.611
-74.219
-72.819
-71.425
-70.047
-68.689
-67.36
-66.067
-64.818
-63.624
-62.493
-61.427
-60.43
-59.5
-58.638
-57.842
-57.113
-56.449
-55.852
-55.32
-54.856
-54.46
-54.134
-53.876
-53.685
-53.557
-53.489
-53.477
-53.516
-53.602
-53.73
-53.894
-54.09
-54.315
-54.563
-54.831
-55.115
-55.411
-55.716
-56.027
-56.341
-56.655
-56.967
-57.273
-57.572
-57.86
-58.136
-58.398
-58.643
-58.87
-59.077
-59.263
-59.427
-59.569
-59.688
-59.784
-59.857
-59.91
-59.942
-59.955
-59.952
-59.934
-59.903
-59.863
-59.816
-59.764
-59.709
-59.654
-59.6
-59.551
-59.506
-59.469
-59.439
-59.419
-59.409
-59.411
-59.426
-59.455
-59.499
-59.558
-59.635
-59.73
-59.843
-59.976
-60.128
-60.299
-60.489
-60.699
-60.926
-61.17
-61.431
-61.706
-61.994
-62.293
-62.601
-62.916
-63.235
-63.555
-63.875
-64.192
-64.504
-64.809
-65.105
-65.392
-65.667
-65.93
-66.18
-66.415
-66.636
-66.84
-67.027
-67.196
-67.346
-67.477
-67.587
-67.677
-67.745
-67.791
-67.815
-67.816
-67.794
-67.75
-67.683
-67.593
-67.481
-67.348
-67.194
-67.021
-66.83
-66.622
-66.398
-66.16
-65.908
-65.643
-65.365
-65.077
-64.777
-64.466
-64.144
-63.812
-63.469
-63.116
-62.753
-62.38
-61.997
-61.605
-61.204
-60.793
-60.375
-59.949
-59.515
-59.075
-58.629
-58.177
-57.721
-57.26
-56.794
-56.325
-55.852
-55.375
-54.894
-54.409
-53.92
-53.426
-52.929
-52.426
-51.92
-51.41
-50.895
-50.378
-49.858
-49.335
-48.811
-48.286
-47.762
-47.237
-46.715
-46.194
-45.677
-45.162
-44.652
-44.146
-43.646
-43.15
-42.661
-42.177
-41.701
-41.232
-40.772
-40.321
-39.88
-39.451
-39.033
-38.629
-38.239
-37.864
-37.507
-37.167
-36.845
-36.544
-36.263
-36.003
-35.765
-35.549
-35.355
-35.182
-35.031
-34.901
-34.791
-34.7
-34.628
-34.574
-34.536
-34.514
-34.506
-34.512
-34.529
-34.555
-34.59
-34.631
-34.675
-34.722
-34.768
-34.811
-34.849
-34.879
-34.9
-34.908
-34.902
-34.878
-34.835
-34.77
-34.682
-34.569
-34.429
-34.261
-34.066
-33.842
-33.59
-33.311
-33.005
-32.674
-32.318
-31.939
-31.538
-31.118
-30.681
-30.229
-29.765
-29.291
-28.81
-28.326
-27.841
-27.359
-26.882
-26.414
-25.957
-25.514
-25.089
-24.684
-24.302
-23.946
-23.617
-23.319
-23.053
-22.821
-22.623
-22.461
-22.334
-22.243
-22.185
-22.161
-22.168
-22.204
-22.268
-22.357
-22.468
-22.598
-22.745
-22.904
-23.072
-23.246
-23.422
-23.596
-23.765
-23.927
-24.077
-24.214
-24.334
-24.435
-24.516
-24.573
-24.605
-24.611
-24.588
-24.536
-24.454
-24.342
-24.199
-24.027
-23.825
-23.597
-23.344
-23.067
-22.771
-22.458
-22.13
-21.793
-21.45
-21.104
-20.761
-20.424
-20.098
-19.788
-19.498
-19.232
-18.994
-18.787
-18.614
-18.479
-18.383
-18.329
-18.319
-18.354
-18.437
-18.568
-18.748
-18.979
-19.26
-19.591
-19.972
-20.402
-20.88
-21.404
-21.972
-22.583
-23.233
-23.919
-24.638
-25.386
-26.158
-26.949
-27.755
-28.569
-29.387
-30.203
-31.011
-31.806
-32.583
-33.336
-34.06
-34.75
-35.401
-36.01
-36.569
-37.077
-37.526
-37.915
-38.238
-38.492
-38.672
-38.776
-38.8
-38.74
-38.594
-38.358
-38.031
-37.609
-37.093
-36.48
-35.77
-34.965
-34.065
-33.072
-31.989
-30.818
-29.563
-28.229
-26.821
-25.343
-23.801
-22.203
-20.555
-18.866
-17.144
-15.401
-13.646
-11.889
-10.139
-8.411
-6.717
-5.072
-3.487
-1.974
-0.545
0.787
2.011
3.113
4.082
4.913
5.597
6.128
6.496
6.69
6.706
6.549
6.223
5.734
5.084
4.264
3.272
2.113
0.793
-0.681
-2.304
-4.079
-5.993
-8.024
-10.139
-12.297
-14.473
-16.661
-18.858
-21.07
-23.276
-25.42
-27.452
-29.323
-31.004
-32.506
-33.807
-34.848
-35.65
-36.286
-36.937
-37.923
-39.401
-41.337
-43.689
-46.359
-49.254
-52.377
-55.387
-57.585
-58.528
-57.997
-56.039
-53.072
-49.348
-44.857
-40.044
-35.807
-33.03
-32.6
-34.838
-39.391
-45.968
-54.393
-64.205
-74.518
-83.849
-90.245
-92.098
-88.147
-77.34
-58.79
-31.356
5.879
52.772
108.34
170.207
234.473
297.917
358.071
414.119
466.328
512.311
546.277
559.431
544.427
499.243
427.647
337.308
234.759
126.089
18.865
-76.814
-149.152
-191.134
-204.309
-197.825
-182.609
-165.417
-147.316
-125.333
-98.017
-67.358
-36.998
-11.387
6.905
17.816
22.053
20.899
16.026
9.003
1.347
-5.311
-9.764
-11.531
-10.446
-6.711
-1.003
5.889
13.093
19.578
24.649
28.035
29.634
29.579
28.167
25.709
22.637
19.466
16.52
13.955
11.838
10.144
8.871
8.064
7.735
7.857
8.411
9.384
10.769
12.562
14.722
17.159
19.755
22.403
25.036
27.612
30.112
32.514
34.792
36.926
38.904
40.724
42.382
43.873
45.193
46.345
47.348
48.236
49.059
49.857
50.659
51.486
52.356
53.284
54.287
55.378
56.563
57.85
59.249
60.776
62.445
64.269
66.255
68.408
70.731
73.231
75.914
78.787
81.856
85.126
88.606
92.302
96.223
100.371
104.745
109.341
114.156
119.189
124.439
129.9
135.56
141.403
147.413
153.571
159.852
166.224
172.642
179.064
185.454
191.786
198.045
204.21
210.26
216.176
221.937
227.537
232.972
238.231
243.303
248.174
252.846
257.338
261.688
265.927
270.062
274.082
277.96
281.669
285.178
288.443
291.406
293.99
296.125
297.76
298.859
299.385
299.292
298.509
296.951
294.551
291.274
287.108
282.061
276.145
269.39
261.854
253.624
244.814
235.524
225.829
215.794
205.481
194.963
184.336
173.703
163.147
152.733
142.518
132.547
122.866
113.504
104.463
95.72
87.237
78.989
70.972
63.189
55.646
48.341
41.267
34.414
27.786
21.387
15.221
9.288
3.587
-1.879
-7.09
-12.023
-16.646
-20.941
-24.901
-28.522
-31.805
-34.753
-37.37
-39.664
-41.654
-43.354
-44.777
-45.934
-46.837
-47.499
-47.939
-48.177
-48.232
-48.124
-47.869
-47.484
-46.985
-46.388
-45.707
-44.952
-44.135
-43.266
-42.356
-41.417
-40.46
-39.495
-38.532
-37.579
-36.645
-35.738
-34.865
-34.03
-33.24
-32.497
-31.805
-31.168
-30.587
-30.064
-29.6
-29.196
-28.854
-28.572
-28.351
-28.19
-28.087
-28.042
-28.053
-28.118
-28.235
-28.402
-28.615
-28.874
-29.175
-29.516
-29.894
-30.307
-30.751
-31.224
-31.724
-32.248
-32.793
-33.357
-33.938
-34.533
-35.142
-35.761
-36.391
-37.029
-37.675
-38.327
-38.984
-39.646
-40.311
-40.979
-41.649
-42.32
-42.993
-43.666
-44.34
-45.015
-45.69
-46.368
-47.048
-47.73
-48.417
-49.108
-49.804
-50.507
-51.217
-51.935
-52.662
-53.399
-54.146
-54.903
-55.672
-56.452
-57.244
-58.047
-58.861
-59.686
-60.522
-61.367
-62.221
-63.084
-63.955
-64.832
-65.716
-66.604
-67.496
-68.391
-69.286
-70.182
-71.076
-71.966
-72.851
-73.728
-74.596
-75.453
-76.296
-77.123
-77.932
-78.721
-79.488
-80.231
-80.949
-81.639
-82.301
-82.934
-83.537
-84.108
-84.647
-85.155
-85.63
-86.073
-86.483
-86.862
-87.209
-87.525
-87.809
-88.064
-88.289
-88.484
-88.651
-88.789
-88.901
-88.985
-89.044
-89.078
-89.087
-89.073
-89.038
-88.981
-88.904
-88.808
-88.695
-88.565
-88.418
-88.256
-88.08
-87.889
-87.684
-87.466
-87.234
-86.988
-86.729
-86.458
-86.173
-85.872
-85.555
-85.218
-84.861
-84.486
-84.093
-83.677
-83.25
-82.817
-82.38
-81.95
-81.526
-81.09
-80.639
-80.174
-79.65
-79.044
-78.363
-77.582
-76.7
-75.781
-74.854
-73.916
-73.137
-72.667
-72.35
-72.171
-72.232
-72.151
-72.487
-73.99
-75.583
-76.878
-76.032
-69.973
-59.814
-47.758
-38.199
-37.533
-47.216
-64.194
-81.574
-91.238
-88.628
-75.498
-58.93
-45.446
-39.637
-41.515
-46.395
-51.09
-53.646
-53.603
-52.81
-52.089
-51.402
-50.833
-50.073
-49.042
-48.02
-47.097
-46.249
-45.508
-44.879
-44.342
-43.892
-43.504
-43.133
-42.768
-42.428
-42.116
-41.835
-41.585
-41.365
-41.179
-41.031
-40.924
-40.856
-40.825
-40.831
-40.872
-40.95
-41.062
-41.207
-41.383
-41.588
-41.821
-42.077
-42.354
-42.649
-42.958
-43.279
-43.607
-43.939
-44.272
-44.603
-44.927
-45.243
-45.547
-45.836
-46.108
-46.36
-46.591
-46.797
-46.978
-47.13
-47.252
-47.344
-47.402
-47.427
-47.418
-47.374
-47.294
-47.18
-47.031
-46.85
-46.636
-46.393
-46.121
-45.825
-45.506
-45.167
-44.812
-44.445
-44.067
-43.684
-43.298
-42.914
-42.534
-42.161
-41.799
-41.45
-41.117
-40.802
-40.507
-40.234
-39.984
-39.758
-39.558
-39.385
-39.239
-39.12
-39.029
-38.966
-38.929
-38.918
-38.932
-38.968
-39.026
-39.101
-39.192
-39.295
-39.409
-39.528
-39.65
-39.772
-39.889
-39.998
-40.096
-40.179
-40.244
-40.288
-40.307
-40.3
-40.264
-40.198
-40.1
-39.969
-39.805
-39.606
-39.374
-39.107
-38.807
-38.474
-38.108
-37.712
-37.287
-36.835
-36.358
-35.859
-35.341
-34.807
-34.261
-33.704
-33.142
-32.578
-32.015
-31.456
-30.905
-30.366
-29.841
-29.333
-28.846
-28.381
-27.94
-27.526
-27.14
-26.781
-26.451
-26.148
-25.873
-25.624
-25.4
-25.198
-25.017
-24.853
-24.704
-24.565
-24.433
-24.304
-24.174
-24.036
-23.886
-23.719
-23.53
-23.312
-23.06
-22.769
-22.434
-22.049
-21.609
-21.11
-20.547
-19.916
-19.213
-18.435
-17.578
-16.641
-15.621
-14.519
-13.333
-12.065
-10.716
-9.288
-7.785
-6.212
-4.573
-2.876
-1.127
0.666
2.494
4.346
6.213
8.084
9.949
11.797
13.617
15.396
17.124
18.789
20.378
21.88
23.281
24.568
25.73
26.756
27.639
28.369
28.941
29.346
29.573
29.614
29.467
29.125
28.587
27.855
26.931
25.832
24.584
23.212
21.744
20.205
18.614
16.993
15.367
13.759
12.204
10.73
9.355
8.105
6.997
6.034
5.22
4.527
3.884
3.22
2.464
1.549
0.447
-0.881
-2.5
-4.474
-6.878
-9.78
-13.2
-17.189
-21.845
-27.169
-33.068
-39.299
-45.381
-50.829
-55.284
-58.344
-59.585
-58.803
-56.022
-51.611
-46.502
-41.646
-37.674
-35.19
-34.683
-36.162
-39.147
-42.513
-44.139
-41.705
-33.25
-16.78
9.389
46.264
94.111
152.085
217.872
288.291
359.803
428.233
489.181
538.192
571.041
584.397
577.129
550.494
506.261
446.245
369.855
275.251
165.207
48.685
-58.998
-141.523
-191.014
-211.283
-212.789
-205.319
-192.573
-170.045
-134.941
-91.56
-47.492
-14.108
3.735
10.813
12.193
14.413
19.823
24.131
25.094
21.47
13.498
4.815
-2.171
-6.818
-8.848
-8.857
-7.497
-4.938
-1.52
1.966
4.683
6.15
6.168
4.804
2.349
-0.954
-4.887
-9.082
-13.15
-16.863
-20.091
-22.792
-25.006
-26.73
-27.944
-28.677
-28.968
-28.845
-28.343
-27.495
-26.345
-24.981
-23.49
-21.928
-20.34
-18.747
-17.161
-15.604
-14.09
-12.625
-11.21
-9.846
-8.535
-7.284
-6.09
-4.936
-3.796
-2.625
-1.391
-0.069
1.365
2.924
4.623
6.474
8.487
10.661
13.002
15.515
18.209
21.094
24.177
27.461
30.945
34.628
38.511
42.595
46.883
51.375
56.073
60.979
66.096
71.427
76.973
82.73
88.69
94.848
101.197
107.732
114.45
121.341
128.39
135.583
142.9
150.317
157.803
165.318
172.82
180.275
187.655
194.937
202.111
209.161
216.076
222.845
229.45
235.873
242.1
248.107
253.878
259.406
264.694
269.762
274.64
279.336
283.845
288.152
292.219
296.004
299.453
302.492
305.065
307.128
308.639
309.58
309.937
309.683
308.789
307.213
304.894
301.796
297.896
293.173
287.641
281.324
274.272
266.579
258.326
249.576
240.387
230.796
220.825
210.509
199.876
188.957
177.814
166.507
155.1
143.678
132.311
121.067
109.989
99.078
88.338
77.788
67.451
57.365
47.583
38.155
29.146
20.632
12.66
5.262
-1.553
-7.812
-13.546
-18.804
-23.618
-27.999
-31.956
-35.498
-38.638
-41.392
-43.791
-45.863
-47.659
-49.246
-50.679
-52.001
-53.236
-54.385
-55.436
-56.364
-57.148
-57.779
-58.254
-58.579
-58.764
-58.821
-58.766
-58.614
-58.368
-58.025
-57.579
-57.03
-56.384
-55.66
-54.879
-54.073
-53.27
-52.494
-51.768
-51.107
-50.518
-50.008
-49.578
-49.224
-48.945
-48.745
-48.623
-48.583
-48.626
-48.747
-48.943
-49.209
-49.536
-49.916
-50.343
-50.807
-51.305
-51.829
-52.376
-52.942
-53.525
-54.12
-54.724
-55.332
-55.94
-56.543
-57.137
-57.717
-58.279
-58.821
-59.341
-59.835
-60.304
-60.746
-61.16
-61.547
-61.906
-62.238
-62.543
-62.821
-63.075
-63.304
-63.512
-63.699
-63.868
-64.021
-64.162
-64.292
-64.415
-64.533
-64.649
-64.766
-64.887
-65.014
-65.15
-65.297
-65.457
-65.634
-65.828
-66.041
-66.275
-66.531
-66.808
-67.108
-67.431
-67.775
-68.142
-68.531
-68.942
-69.373
-69.824
-70.295
-70.783
-71.289
-71.809
-72.342
-72.885
-73.438
-73.997
-74.559
-75.123
-75.685
-76.242
-76.792
-77.331
-77.856
-78.364
-78.852
-79.317
-79.756
-80.169
-80.551
-80.903
-81.223
-81.51
-81.763
-81.981
-82.164
-82.311
-82.422
-82.496
-82.534
-82.535
-82.5
-82.429
-82.323
-82.183
-82.011
-81.809
-81.577
-81.317
-81.033
-80.725
-80.396
-80.049
-79.687
-79.313
-78.93
-78.542
-78.151
-77.76
-77.372
-76.989
-76.614
-76.247
-75.89
-75.545
-75.213
-74.894
-74.591
-74.303
-74.032
-73.779
-73.545
-73.329
-73.133
-72.957
-72.799
-72.661
-72.543
-72.442
-72.36
-72.295
-72.248
-72.216
-72.199
-72.195
-72.204
-72.223
-72.25
-72.285
-72.325
-72.368
-72.415
-72.464
-72.515
-72.567
-72.619
-72.673
-72.728
-72.783
-72.838
-72.894
-72.951
-73.006
-73.062
-73.116
-73.17
-73.222
-73.273
-73.322
-73.368
-73.411
-73.45
-73.484
-73.513
-73.537
-73.554
-73.563
-73.566
-73.56
-73.546
-73.523
-73.491
-73.448
-73.394
-73.327
-73.246
-73.15
-73.036
-72.904
-72.753
-72.58
-72.384
-72.166
-71.923
-71.656
-71.365
-71.048
-70.708
-70.343
-69.955
-69.545
-69.114
-68.664
-68.197
-67.714
-67.218
-66.71
-66.194
-65.671
-65.144
-64.615
-64.087
-63.561
-63.041
-62.529
-62.027
-61.539
-61.067
-60.613
-60.18
-59.771
-59.388
-59.033
-58.708
-58.414
-58.153
-57.925
-57.731
-57.571
-57.445
-57.352
-57.29
-57.259
-57.257
-57.282
-57.332
-57.405
-57.498
-57.61
-57.737
-57.877
-58.028
-58.187
-58.353
-58.522
-58.692
-58.862
-59.03
-59.193
-59.351
-59.5
-59.639
-59.767
-59.882
-59.984
-60.069
-60.139
-60.191
-60.226
-60.244
-60.244
-60.226
-60.191
-60.141
-60.074
-59.991
-59.894
-59.782
-59.655
-59.513
-59.355
-59.181
-58.99
-58.78
-58.549
-58.295
-58.015
-57.706
-57.365
-56.988
-56.57
-56.107
-55.593
-55.025
-54.396
-53.702
-52.937
-52.096
-51.173
-50.162
-49.058
-47.855
-46.547
-45.129
-43.594
-41.939
-40.157
-38.246
-36.2
-34.018
-31.696
-29.233
-26.629
-23.884
-20.999
-17.977
-14.819
-11.532
-8.122
-4.593
-0.955
2.783
6.611
10.518
14.492
18.519
22.587
26.679
30.779
34.871
38.939
42.964
46.929
50.816
54.607
58.285
61.833
65.235
68.474
71.534
74.397
77.048
79.473
81.656
83.585
85.249
86.638
87.748
88.577
89.119
89.374
89.332
88.991
88.354
87.424
86.207
84.715
82.962
80.974
78.787
76.434
73.947
71.354
68.673
65.929
63.153
60.378
57.643
54.985
52.425
49.985
47.693
45.56
43.581
41.719
39.907
38.087
36.227
34.311
32.321
30.22
27.954
25.469
22.713
19.666
16.299
12.531
8.362
3.894
-0.669
-4.931
-8.504
-11.151
-12.586
-12.481
-10.81
-7.68
-3.448
1.046
5.178
8.629
10.9
11.658
11.165
9.908
8.925
10.043
14.706
24.143
39.93
63.235
94.472
133.537
179.337
229.671
282.214
334.176
382.076
422.354
451.642
467.046
466.301
449.007
416.579
370.952
314.962
249.341
172.565
86.9
-2.588
-85.484
-147.085
-181.085
-186.397
-167.732
-136.617
-97.626
-55.218
-15.952
17.976
40.189
48.047
46.579
39.212
31.517
26.611
21.973
17.005
11.347
5.308
1.525
1.033
3.455
8.217
13.904
19.184
23.547
26.609
28.125
28.227
27.093
24.952
22.223
19.372
16.691
14.368
12.499
11.042
9.982
9.333
9.086
9.24
9.774
10.655
11.845
13.297
14.962
16.783
18.694
20.619
22.493
24.273
25.936
27.48
28.895
30.167
31.271
32.179
32.884
33.386
33.693
33.825
33.798
33.627
33.339
32.963
32.522
32.037
31.518
30.966
30.39
29.802
29.218
28.653
28.122
27.635
27.208
26.854
26.586
26.419
26.366
26.437
26.643
26.999
27.518
28.216
29.107
30.199
31.506
33.038
34.807
36.831
39.117
41.668
44.484
47.557
50.879
54.436
58.209
62.168
66.285
70.535
74.897
79.358
83.903
88.508
93.144
97.777
102.377
106.929
111.426
115.856
120.223
124.535
128.818
133.124
137.494
141.949
146.491
151.095
155.738
160.407
165.089
169.771
174.434
179.036
183.532
187.887
192.041
195.911
199.381
202.289
204.483
205.855
206.329
205.859
204.408
201.921
198.356
193.689
187.897
180.967
172.882
163.605
153.137
141.533
128.896
115.385
101.169
86.373
71.102
55.455
39.531
23.441
7.289
-8.846
-24.873
-40.672
-56.089
-70.948
-85.099
-98.454
-110.965
-122.621
-133.432
-143.391
-152.488
-160.738
-168.16
-174.771
-180.578
-185.572
-189.757
-193.196
-196.008
-198.324
-200.274
-201.953
-203.439
-204.813
-206.134
-207.452
-208.801
-210.189
-211.616
-213.107
-214.699
-216.436
-218.366
-220.482
-222.733
-225.068
-227.423
-229.738
-231.95
-233.972
-235.729
-237.179
-238.295
-239.076
-239.524
-239.617
-239.329
-238.634
-237.495
-235.904
-233.872
-231.405
-228.526
-225.271
-221.684
-217.836
-213.789
-209.581
-205.24
-200.78
-196.212
-191.556
-186.833
-182.06
-177.26
-172.454
-167.657
-162.891
-158.167
-153.487
-148.847
-144.23
-139.622
-135.018
-130.419
-125.828
-121.251
-116.693
-112.16
-107.664
-103.212
-98.809
-94.457
-90.156
-85.909
-81.72
-77.596
-73.543
-69.569
-65.678
-61.877
-58.168
-54.556
-51.041
-47.626
-44.308
-41.087
-37.962
-34.934
-32.004
-29.171
-26.436
-23.799
-21.262
-18.823
-16.484
-14.242
-12.099
-10.053
-8.103
-6.249
-4.491
-2.827
-1.257
0.219
1.601
2.891
4.088
5.193
6.209
7.135
7.974
8.727
9.398
9.988
10.501
10.939
11.306
11.604
11.838
12.01
12.124
12.184
12.194
12.156
12.076
11.957
11.802
11.617
11.403
11.165
10.907
10.632
10.344
10.046
9.742
9.435
9.129
8.827
8.533
8.249
7.979
7.724
7.487
7.269
7.073
6.897
6.743
6.612
6.502
6.413
6.345
6.297
6.268
6.258
6.265
6.289
6.328
6.381
6.448
6.527
6.617
6.718
6.828
6.948
7.075
7.209
7.349
7.494
7.644
7.796
7.95
8.104
8.258
8.41
8.559
8.706
8.849
8.989
9.125
9.257
9.387
9.513
9.636
9.756
9.874
9.99
10.103
10.214
10.323
10.429
10.532
10.632
10.729
10.82
10.907
10.987
11.06
11.125
11.181
11.228
11.264
11.291
11.307
11.313
11.308
11.293
11.269
11.235
11.192
11.14
11.08
11.013
10.938
10.857
10.771
10.68
10.585
10.488
10.39
10.292
10.194
10.099
10.008
9.922
9.842
9.771
9.71
9.661
9.625
9.604
9.599
9.612
9.643
9.693
9.762
9.852
9.96
10.088
10.234
10.398
10.578
10.775
10.985
11.208
11.442
11.684
11.933
12.186
12.442
12.697
12.95
13.199
13.44
13.673
13.894
14.101
14.292
14.466
14.62
14.752
14.86
14.943
14.999
15.027
15.026
14.995
14.934
14.842
14.719
14.565
14.381
14.166
13.923
13.651
13.351
13.026
12.677
12.305
11.913
11.502
11.074
10.632
10.177
9.713
9.24
8.762
8.281
7.798
7.316
6.837
6.362
5.895
5.436
4.988
4.552
4.13
3.724
3.335
2.965
2.616
2.288
1.983
1.704
1.451
1.225
1.029
0.863
0.728
0.627
0.558
0.524
0.525
0.562
0.635
0.743
0.888
1.068
1.284
1.534
1.82
2.138
2.49
2.874
3.288
3.732
4.204
4.702
5.226
5.773
6.342
6.93
7.534
8.153
8.782
9.42
10.063
10.707
11.35
11.987
12.615
13.23
13.829
14.409
14.965
15.496
15.998
16.47
16.91
17.316
17.687
18.023
18.323
18.588
18.818
19.014
19.177
19.309
19.411
19.485
19.535
19.563
19.572
19.566
19.549
19.526
19.502
19.481
19.468
19.468
19.489
19.534
19.611
19.724
19.879
20.082
20.337
20.649
21.022
21.46
21.964
22.536
23.177
23.887
24.666
25.511
26.42
27.39
28.418
29.499
30.628
31.798
33.004
34.237
35.487
36.744
37.997
39.233
40.441
41.607
42.718
43.761
44.724
45.596
46.366
47.022
47.551
47.941
48.18
48.26
48.171
47.905
47.457
46.822
45.997
44.986
43.789
42.407
40.834
39.063
37.088
34.91
32.535
29.968
27.22
24.301
21.233
18.051
14.789
11.479
8.149
4.822
1.525
-1.699
-4.805
-7.738
-10.455
-12.927
-15.133
-17.051
-18.674
-20.004
-21.057
-21.895
-22.588
-23.205
-23.824
-24.519
-25.352
-26.429
-27.897
-29.834
-32.262
-35.104
-38.147
-41.199
-44.117
-46.666
-48.553
-49.605
-49.743
-49.162
-48.433
-48.036
-48.343
-49.765
-52.551
-56.722
-62.148
-68.132
-73.322
-76.377
-75.805
-70.039
-57.954
-38.414
-10.315
26.681
72.227
124.807
181.251
238.405
294.119
348.236
401.661
452.708
495.637
520.005
516.578
483.451
425.274
353.094
274.834
190.424
99.998
4.277
-88.188
-160.423
-203.083
-213.755
-198.364
-170.383
-136.409
-99.837
-64.277
-33.144
-13.881
-11.539
-24.539
-45.406
-64.445
-75.776
-78.921
-77.9
-76.726
-76.406
-75.783
-72.958
-67.384
-60.107
-52.645
-46.092
-40.721
-36.524
-33.596
-31.969
-31.575
-32.135
-33.166
-34.383
-35.685
-36.984
-38.215
-39.266
-40.02
-40.45
-40.592
-40.456
-40.044
-39.35
-38.359
-37.097
-35.604
-33.915
-32.072
-30.105
-28.051
-25.953
-23.861
-21.821
-19.871
-18.033
-16.322
-14.748
-13.315
-12.018
-10.848
-9.788
-8.822
-7.935
-7.11
-6.332
-5.585
-4.85
-4.112
-3.352
-2.554
-1.702
-0.784
0.214
1.302
2.492
3.794
5.218
6.776
8.478
10.337
12.365
14.576
16.983
19.595
22.424
25.478
28.768
32.302
36.094
40.147
44.463
49.039
53.869
58.943
64.249
69.766
75.466
81.326
87.323
93.435
99.649
105.941
112.287
118.667
125.056
131.439
137.813
144.175
150.525
156.88
163.253
169.669
176.162
182.748
189.43
196.207
203.06
209.977
216.939
223.912
230.857
237.728
244.452
250.956
257.157
262.941
268.201
272.83
276.706
279.741
281.868
283.025
283.178
282.298
280.365
277.39
273.393
268.402
262.475
255.68
248.103
239.866
231.087
221.875
212.356
202.625
192.764
182.857
172.964
163.135
153.42
143.852
134.452
125.248
116.25
107.457
98.859
90.42
82.113
73.921
65.823
57.814
49.896
42.068
34.344
26.747
19.294
12.008
4.914
-1.975
-8.635
-15.044
-21.173
-26.991
-32.471
-37.595
-42.35
-46.728
-50.725
-54.34
-57.58
-60.458
-62.987
-65.18
-67.051
-68.612
-69.876
-70.862
-71.586
-72.067
-72.324
-72.373
-72.23
-71.912
-71.435
-70.813
-70.062
-69.192
-68.216
-67.148
-66
-64.786
-63.518
-62.209
-60.869
-59.51
-58.143
-56.776
-55.417
-54.075
-52.754
-51.46
-50.198
-48.971
-47.783
-46.635
-45.529
-44.465
-43.443
-42.462
-41.522
-40.622
-39.759
-38.933
-38.14
-37.381
-36.653
-35.955
-35.285
-34.641
-34.023
-33.43
-32.859
-32.31
-31.781
-31.272
-30.78
-30.305
-29.845
-29.399
-28.968
-28.548
-28.142
-27.746
-27.362
-26.99
-26.628
-26.278
-25.939
-25.611
-25.296
-24.994
-24.705
-24.429
-24.167
-23.919
-23.686
-23.466
-23.258
-23.063
-22.877
-22.701
-22.532
-22.368
-22.207
-22.047
-21.886
-21.723
-21.555
-21.379
-21.196
-21.002
-20.797
-20.579
-20.346
-20.099
-19.836
-19.557
-19.261
-18.948
-18.619
-18.273
-17.91
-17.532
-17.138
-16.73
-16.308
-15.873
-15.429
-14.976
-14.518
-14.056
-13.595
-13.138
-12.687
-12.247
-11.821
-11.413
-11.026
-10.663
-10.327
-10.021
-9.748
-9.51
-9.31
-9.147
-9.025
-8.942
-8.9
-8.899
-8.937
-9.014
-9.129
-9.28
-9.465
-9.683
-9.93
-10.205
-10.504
-10.823
-11.16
-11.509
-11.866
-12.226
-12.584
-12.935
-13.274
-13.596
-13.894
-14.165
-14.403
-14.603
-14.762
-14.874
-14.937
-14.946
-14.899
-14.794
-14.629
-14.401
-14.112
-13.759
-13.343
-12.866
-12.326
-11.727
-11.069
-10.353
-9.584
-8.762
-7.892
-6.977
-6.02
-5.026
-4
-2.947
-1.871
-0.779
0.324
1.432
2.541
3.643
4.734
5.808
6.859
7.883
8.874
9.827
10.739
11.604
12.42
13.182
13.888
14.535
15.121
15.643
16.098
16.486
16.804
17.051
17.227
17.329
17.358
17.313
17.196
17.006
16.744
16.412
16.012
15.545
15.015
14.422
13.77
13.062
12.301
11.49
10.632
9.731
8.791
7.815
6.806
5.769
4.707
3.623
2.521
1.404
0.277
-0.857
-1.994
-3.131
-4.263
-5.386
-6.497
-7.59
-8.664
-9.713
-10.734
-11.725
-12.683
-13.604
-14.486
-15.328
-16.127
-16.882
-17.591
-18.254
-18.869
-19.436
-19.956
-20.428
-20.853
-21.232
-21.565
-21.853
-22.097
-22.299
-22.459
-22.58
-22.662
-22.709
-22.721
-22.702
-22.655
-22.582
-22.486
-22.371
-22.239
-22.094
-21.939
-21.776
-21.608
-21.438
-21.268
-21.101
-20.938
-20.782
-20.634
-20.496
-20.369
-20.252
-20.147
-20.053
-19.971
-19.9
-19.84
-19.79
-19.75
-19.72
-19.7
-19.688
-19.685
-19.689
-19.701
-19.719
-19.742
-19.77
-19.801
-19.836
-19.873
-19.913
-19.954
-19.997
-20.043
-20.092
-20.144
-20.2
-20.262
-20.331
-20.409
-20.498
-20.6
-20.718
-20.856
-21.017
-21.204
-21.422
-21.674
-21.964
-22.296
-22.672
-23.096
-23.572
-24.102
-24.689
-25.335
-26.043
-26.815
-27.653
-28.557
-29.53
-30.57
-31.679
-32.854
-34.095
-35.399
-36.764
-38.186
-39.663
-41.19
-42.763
-44.376
-46.024
-47.7
-49.398
-51.11
-52.828
-54.544
-56.248
-57.934
-59.59
-61.208
-62.778
-64.293
-65.743
-67.119
-68.413
-69.616
-70.72
-71.717
-72.602
-73.365
-74.002
-74.508
-74.877
-75.108
-75.197
-75.144
-74.946
-74.605
-74.122
-73.499
-72.738
-71.845
-70.822
-69.677
-68.416
-67.046
-65.577
-64.018
-62.38
-60.676
-58.92
-57.126
-55.307
-53.481
-51.66
-49.863
-48.103
-46.395
-44.752
-43.187
-41.716
-40.352
-39.111
-38.006
-37.048
-36.25
-35.62
-35.169
-34.903
-34.823
-34.931
-35.228
-35.72
-36.419
-37.335
-38.471
-39.827
-41.402
-43.185
-45.168
-47.329
-49.635
-52.054
-54.551
-57.096
-59.672
-62.255
-64.812
-67.303
-69.677
-71.887
-73.905
-75.709
-77.273
-78.601
-79.707
-80.634
-81.454
-82.232
-83.027
-83.907
-84.941
-86.208
-87.802
-89.805
-92.321
-95.489
-99.358
-103.874
-108.887
-114.08
-119.122
-123.748
-127.615
-130.29
-131.551
-131.46
-130.382
-129.074
-128.252
-128.265
-129.399
-132.033
-136.202
-141.363
-146.368
-149.33
-148.218
-141.573
-128.115
-106.366
-75.294
-34.657
14.976
71.816
133.24
196.665
259.112
316.862
366.162
403.383
425.136
429.081
414.904
383.871
337.882
279.091
207.228
120.984
23.303
-77.805
-169.075
-236.209
-272.826
-282.78
-275.503
-260.327
-241.577
-216.351
-182.923
-145.646
-111.14
-88.945
-83.064
-88.375
-98.955
-107.871
-111.916
-113.616
-114.359
-115.049
-115.43
-113.281
-107.942
-99.972
-90.178
-79.989
-70.484
-62.076
-55.184
-50.074
-46.736
-45.074
-44.851
-45.696
-47.227
-49.186
-51.361
-53.565
-55.687
-57.639
-59.358
-60.836
-62.083
-63.081
-63.792
-64.168
-64.164
-63.767
-62.993
-61.861
-60.404
-58.67
-56.721
-54.642
-52.525
-50.434
-48.408
-46.472
-44.638
-42.921
-41.337
-39.897
-38.599
-37.437
-36.404
-35.491
-34.689
-33.976
-33.322
-32.688
-32.028
-31.309
-30.506
-29.6
-28.576
-27.419
-26.116
-24.66
-23.047
-21.269
-19.316
-17.18
-14.848
-12.311
-9.564
-6.599
-3.415
-0.011
3.617
7.474
11.566
15.902
20.489
25.324
30.404
35.722
41.267
47.022
52.961
59.049
65.252
71.542
77.895
84.295
90.718
97.135
103.515
109.829
116.06
122.203
128.255
134.218
140.109
145.958
151.816
157.746
163.793
169.98
176.316
182.796
189.422
196.193
203.099
210.118
217.212
224.331
231.421
238.407
245.18
251.601
257.496
262.686
267.024
270.393
272.695
273.844
273.771
272.42
269.763
265.79
260.5
253.892
245.982
236.827
226.538
215.275
203.23
190.605
177.576
164.312
150.982
137.737
124.708
111.996
99.679
87.827
76.526
65.873
55.948
46.784
38.373
30.667
23.6
17.097
11.087
5.482
0.18
-4.899
-9.81
-14.58
-19.222
-23.755
-28.221
-32.674
-37.153
-41.671
-46.224
-50.793
-55.36
-59.898
-64.369
-68.718
-72.875
-76.796
-80.455
-83.847
-86.976
-89.838
-92.422
-94.715
-96.718
-98.438
-99.885
-101.069
-101.998
-102.687
-103.162
-103.461
-103.628
-103.694
-103.683
-103.611
-103.492
-103.341
-103.173
-102.998
-102.821
-102.647
-102.484
-102.34
-102.225
-102.146
-102.103
-102.096
-102.12
-102.176
-102.263
-102.378
-102.52
-102.688
-102.88
-103.098
-103.342
-103.612
-103.907
-104.224
-104.559
-104.909
-105.271
-105.641
-106.014
-106.385
-106.751
-107.108
-107.454
-107.784
-108.098
-108.391
-108.661
-108.907
-109.127
-109.319
-109.483
-109.617
-109.721
-109.797
-109.845
-109.867
-109.864
-109.838
-109.793
-109.73
-109.652
-109.561
-109.46
-109.352
-109.239
-109.125
-109.013
-108.906
-108.809
-108.723
-108.653
-108.603
-108.574
-108.57
-108.594
-108.646
-108.729
-108.844
-108.992
-109.174
-109.39
-109.64
-109.924
-110.24
-110.588
-110.964
-111.369
-111.798
-112.249
-112.72
-113.207
-113.708
-114.218
-114.736
-115.258
-115.78
-116.3
-116.814
-117.318
-117.81
-118.286
-118.743
-119.178
-119.588
-119.969
-120.321
-120.639
-120.924
-121.171
-121.382
-121.554
-121.686
-121.778
-121.831
-121.844
-121.818
-121.754
-121.653
-121.516
-121.345
-121.142
-120.908
-120.646
-120.356
-120.042
-119.704
-119.345
-118.966
-118.569
-118.155
-117.727
-117.285
-116.832
-116.368
-115.896
-115.417
-114.932
-114.441
-113.948
-113.451
-112.953
-112.453
-111.954
-111.454
-110.955
-110.456
-109.959
-109.462
-108.967
-108.473
-107.979
-107.487
-106.996
-106.506
-106.018
-105.531
-105.046
-104.564
-104.086
-103.613
-103.145
-102.684
-102.232
-101.789
-101.357
-100.938
-100.532
-100.142
-99.768
-99.412
-99.075
-98.759
-98.465
-98.193
-97.946
-97.724
-97.527
-97.357
-97.214
-97.099
-97.011
-96.95
-96.917
-96.912
-96.932
-96.978
-97.049
-97.142
-97.256
-97.388
-97.537
-97.698
-97.87
-98.047
-98.228
-98.406
-98.579
-98.742
-98.89
-99.019
-99.123
-99.197
-99.236
-99.235
-99.187
-99.089
-98.933
-98.714
-98.428
-98.068
-97.629
-97.105
-96.492
-95.783
-94.974
-94.059
-93.034
-91.894
-90.633
-89.249
-87.737
-86.094
-84.316
-82.401
-80.345
-78.146
-75.802
-73.311
-70.673
-67.886
-64.949
-61.862
-58.627
-55.244
-51.714
-48.039
-44.222
-40.266
-36.173
-31.947
-27.593
-23.115
-18.517
-13.806
-8.988
-4.068
0.946
6.048
11.229
16.482
21.799
27.171
32.591
38.049
43.536
49.044
54.562
60.082
65.592
71.084
76.547
81.971
87.347
92.665
97.916
103.091
108.182
113.181
118.08
122.871
127.548
132.104
136.533
140.827
144.983
148.996
152.861
156.575
160.136
163.54
166.786
169.873
172.799
175.564
178.167
180.609
182.892
185.016
186.986
188.803
190.472
191.999
193.388
194.646
195.779
196.793
197.694
198.488
199.181
199.776
200.28
200.695
201.029
201.286
201.475
201.601
201.674
201.701
201.691
201.648
201.581
201.492
201.387
201.266
201.134
200.992
200.848
200.71
200.582
200.467
200.363
200.262
200.152
200.018
199.841
199.6
199.28
198.868
198.363
197.77
197.097
196.352
195.537
194.644
193.665
192.601
191.455
190.235
188.957
187.647
186.335
185.061
183.852
182.718
181.651
180.618
179.581
178.493
177.318
176.036
174.622
173.05
171.294
169.332
167.132
164.659
161.87
158.71
155.148
151.188
146.855
142.209
137.319
132.267
127.13
121.979
116.885
111.92
107.147
102.612
98.368
94.463
90.935
87.827
85.149
82.871
80.958
79.35
77.955
76.671
75.39
74
72.417
70.534
68.215
65.406
62.141
58.564
54.974
51.655
48.813
46.731
45.791
46.213
47.973
50.732
53.736
56.264
57.966
58.533
57.519
54.778
50.687
46.253
43.35
43.95
49.359
60.937
80.402
109.126
147.859
195.515
248.77
304.35
360.295
416.746
474.776
532.512
583.478
616.605
621.052
591.985
533.26
457.493
376.62
297.289
220.394
140.526
58.493
-17.734
-79.354
-115.678
-125.134
-115.516
-93.761
-68.093
-42.91
-16.69
10.276
37.351
63.537
85.433
100.685
108.863
110.421
106.763
99.47
89.6
77.991
65.936
55.126
46.618
40.813
37.682
36.716
37.476
39.692
42.73
45.646
47.849
49.071
49.268
48.732
47.705
46.297
44.748
43.381
42.37
41.803
41.693
41.92
42.399
43.104
43.961
44.904
45.911
46.952
47.976
48.949
49.829
50.561
51.154
51.636
51.974
52.123
52.203
52.364
52.535
52.729
52.981
52.984
53.568
55.545
57.777
59.929
59.903
55.185
48.591
42.002
38.213
41.056
47.169
53.702
58.707
58.958
56.784
54.545
52.777
52.92
54.154
55.42
56.932
58.562
60.388
62.631
65.156
67.855
70.769
73.911
77.27
80.846
84.647
88.679
92.959
97.514
102.326
107.374
112.649
118.13
123.797
129.625
135.579
141.615
147.701
153.804
159.892
165.944
171.928
177.815
183.581
189.196
194.64
199.908
204.993
209.895
214.633
219.222
223.687
228.07
232.388
236.654
240.879
245.053
249.176
253.241
257.225
261.108
264.866
268.447
271.795
274.84
277.48
279.626
281.181
282.031
282.095
281.302
279.578
276.876
273.154
268.365
262.495
255.536
247.473
238.341
228.193
217.101
205.19
192.572
179.36
165.702
151.719
137.532
123.281
109.086
95.066
81.368
68.108
55.395
43.355
32.061
21.567
11.909
3.075
-4.941
-12.146
-18.579
-24.274
-29.267
-33.618
-37.387
-40.64
-43.479
-45.992
-48.256
-50.366
-52.384
-54.355
-56.32
-58.292
-60.28
-62.296
-64.337
-66.395
-68.47
-70.541
-72.585
-74.577
-76.462
-78.198
-79.754
-81.094
-82.2
-83.062
-83.672
-84.036
-84.169
-84.084
-83.798
-83.33
-82.695
-81.913
-81.01
-80.012
-78.956
-77.87
-76.778
-75.702
-74.656
-73.654
-72.705
-71.815
-70.98
-70.202
-69.478
-68.809
-68.197
-67.64
-67.136
-66.682
-66.274
-65.909
-65.584
-65.299
-65.049
-64.835
-64.654
-64.506
-64.391
-64.309
-64.257
-64.233
-64.234
-64.256
-64.295
-64.349
-64.413
-64.482
-64.553
-64.624
-64.693
-64.756
-64.813
-64.861
-64.899
-64.928
-64.946
-64.954
-64.951
-64.939
-64.917
-64.886
-64.848
-64.803
-64.753
-64.698
-64.639
-64.579
-64.517
-64.456
-64.396
-64.341
-64.29
-64.248
-64.214
-64.193
-64.185
-64.195
-64.223
-64.273
-64.346
-64.445
-64.571
-64.725
-64.908
-65.122
-65.366
-65.642
-65.947
-66.283
-66.648
-67.04
-67.46
-67.905
-68.373
-68.862
-69.37
-69.896
-70.435
-70.987
-71.549
-72.117
-72.69
-73.265
-73.838
-74.408
-74.97
-75.523
-76.064
-76.59
-77.099
-77.587
-78.053
-78.494
-78.91
-79.297
-79.655
-79.983
-80.279
-80.544
-80.777
-80.978
-81.149
-81.289
-81.402
-81.488
-81.549
-81.587
-81.605
-81.605
-81.59
-81.563
-81.526
-81.483
-81.436
-81.39
-81.346
-81.309
-81.28
-81.263
-81.261
-81.275
-81.308
-81.361
-81.438
-81.539
-81.666
-81.82
-82.002
-82.212
-82.452
-82.72
-83.017
-83.341
-83.691
-84.066
-84.465
-84.884
-85.321
-85.775
-86.243
-86.721
-87.207
-87.697
-88.189
-88.678
-89.161
-89.636
-90.099
-90.546
-90.976
-91.385
-91.771
-92.134
-92.47
-92.779
-93.059
-93.31
-93.531
-93.722
-93.882
-94.013
-94.115
-94.189
-94.238
-94.262
-94.265
-94.248
-94.216
-94.169
-94.113
-94.05
-93.984
-93.918
-93.857
-93.804
-93.765
-93.742
-93.741
-93.765
-93.818
-93.904
-94.026
-94.187
-94.39
-94.637
-94.929
-95.268
-95.657
-96.094
-96.582
-97.12
-97.707
-98.344
-99.028
-99.758
-100.532
-101.347
-102.201
-103.09
-104.012
-104.963
-105.939
-106.936
-107.95
-108.976
-110.011
-111.048
-112.083
-113.111
-114.128
-115.127
-116.105
-117.056
-117.977
-118.863
-119.711
-120.517
-121.278
-121.991
-122.652
-123.261
-123.815
-124.313
-124.755
-125.138
-125.465
-125.735
-125.949
-126.109
-126.215
-126.269
-126.274
-126.231
-126.144
-126.014
-125.845
-125.641
-125.404
-125.139
-124.85
-124.541
-124.215
-123.877
-123.531
-123.182
-122.833
-122.489
-122.153
-121.829
-121.522
-121.235
-120.972
-120.735
-120.526
-120.35
-120.206
-120.098
-120.025
-119.99
-119.992
-120.033
-120.112
-120.229
-120.385
-120.577
-120.806
-121.071
-121.369
-121.699
-122.06
-122.448
-122.862
-123.3
-123.758
-124.234
-124.724
-125.225
-125.734
-126.247
-126.759
-127.267
-127.766
-128.252
-128.722
-129.17
-129.593
-129.988
-130.351
-130.678
-130.966
-131.211
-131.411
-131.562
-131.662
-131.708
-131.697
-131.629
-131.5
-131.309
-131.054
-130.736
-130.352
-129.902
-129.385
-128.801
-128.15
-127.434
-126.652
-125.806
-124.9
-123.935
-122.914
-121.842
-120.724
-119.562
-118.363
-117.131
-115.873
-114.594
-113.302
-112.002
-110.704
-109.416
-108.148
-106.908
-105.707
-104.554
-103.459
-102.433
-101.484
-100.621
-99.852
-99.183
-98.623
-98.182
-97.866
-97.686
-97.648
-97.76
-98.027
-98.455
-99.048
-99.805
-100.726
-101.81
-103.057
-104.474
-106.067
-107.836
-109.778
-111.89
-114.162
-116.58
-119.123
-121.759
-124.455
-127.178
-129.897
-132.59
-135.23
-137.789
-140.234
-142.524
-144.618
-146.489
-148.115
-149.475
-150.568
-151.413
-152.049
-152.547
-152.978
-153.397
-153.868
-154.457
-155.237
-156.289
-157.69
-159.498
-161.789
-164.664
-168.148
-172.184
-176.603
-181.097
-185.348
-189.093
-192.019
-193.725
-193.961
-192.716
-190.229
-187.081
-183.83
-180.738
-178.07
-176.251
-175.437
-175.322
-175.122
-173.379
-168.497
-159.319
-144.635
-122.98
-93.234
-54.909
-8.34
44.99
102.806
162.697
221.652
275.783
321.017
353.496
369.788
368.378
349.964
315.52
267.033
205.016
127.483
36.211
-63.54
-160.792
-238.931
-287.978
-305.795
-298.274
-279.229
-257.85
-237.706
-219.188
-198.742
-175.721
-152.446
-131.287
-115.118
-105.241
-101.115
-101.731
-105.602
-111.249
-117.536
-123.4
-128.038
-130.859
-131.548
-130.197
-127.177
-123.04
-118.404
-113.898
-109.933
-106.774
-104.55
-103.171
-102.472
-102.215
-102.075
-101.736
-101.004
-99.784
-98.049
-95.849
-93.218
-90.195
-86.854
-83.273
-79.512
-75.609
-71.588
-67.466
-63.281
-59.084
-54.931
-50.865
-46.912
-43.087
-39.4
-35.856
-32.46
-29.211
-26.096
-23.109
-20.244
-17.498
-14.868
-12.348
-9.922
-7.575
-5.288
-3.042
-0.822
1.388
3.606
5.845
8.12
10.444
12.83
15.291
17.844
20.502
23.28
26.192
29.25
32.468
35.858
39.431
43.196
47.164
51.342
55.739
60.364
65.222
70.316
75.65
81.228
87.052
93.125
99.446
106.005
112.791
119.788
126.976
134.332
141.825
149.419
157.081
164.779
172.485
180.176
187.825
195.402
202.883
210.238
217.445
224.498
231.388
238.115
244.69
251.125
257.444
263.688
269.874
276.015
282.111
288.146
294.111
299.995
305.773
311.415
316.886
322.131
327.099
331.737
335.961
339.691
342.83
345.259
346.895
347.67
347.526
346.429
344.34
341.228
337.092
331.952
325.832
318.773
310.814
301.986
292.372
282.062
271.168
259.826
248.146
236.232
224.198
212.149
200.203
188.467
177.017
165.903
155.181
144.9
135.121
125.916
117.313
109.321
101.935
95.132
88.901
83.222
78.054
73.34
69.006
64.991
61.26
57.797
54.577
51.572
48.74
46.028
43.413
40.884
38.429
36.045
33.722
31.459
29.277
27.217
25.326
23.638
22.168
20.92
19.898
19.107
18.559
18.263
18.213
18.401
18.819
19.46
20.319
21.383
22.627
24.016
25.51
27.081
28.705
30.365
32.045
33.728
35.4
37.05
38.676
40.272
41.83
43.345
44.807
46.211
47.557
48.845
50.079
51.258
52.385
53.459
54.481
55.453
56.374
57.243
58.058
58.819
59.526
60.182
60.787
61.345
61.859
62.331
62.766
63.167
63.537
63.879
64.195
64.489
64.763
65.019
65.259
65.486
65.702
65.908
66.107
66.299
66.486
66.668
66.846
67.019
67.188
67.353
67.513
67.669
67.818
67.962
68.101
68.232
68.357
68.473
68.581
68.678
68.765
68.84
68.901
68.948
68.98
68.997
68.997
68.98
68.947
68.896
68.829
68.745
68.644
68.527
68.395
68.247
68.085
67.91
67.723
67.525
67.318
67.103
66.882
66.655
66.425
66.194
65.961
65.729
65.499
65.273
65.051
64.835
64.625
64.424
64.232
64.048
63.876
63.713
63.562
63.422
63.293
63.175
63.069
62.973
62.888
62.813
62.748
62.692
62.644
62.604
62.571
62.544
62.521
62.503
62.486
62.471
62.457
62.441
62.424
62.404
62.38
62.351
62.316
62.274
62.225
62.167
62.101
62.025
61.94
61.845
61.74
61.624
61.498
61.362
61.215
61.058
60.891
60.714
60.526
60.328
60.12
59.902
59.675
59.437
59.19
58.934
58.669
58.396
58.114
57.825
57.529
57.226
56.917
56.603
56.284
55.962
55.636
55.308
54.977
54.645
54.312
53.979
53.645
53.312
52.979
52.647
52.316
51.987
51.658
51.332
51.007
50.685
50.365
50.049
49.736
49.428
49.124
48.825
48.532
48.244
47.961
47.685
47.414
47.149
46.89
46.635
46.385
46.138
45.896
45.655
45.417
45.18
44.944
44.707
44.47
44.231
43.991
43.75
43.506
43.261
43.014
42.765
42.514
42.261
42.006
41.748
41.488
41.226
40.96
40.691
40.419
40.143
39.864
39.582
39.296
39.007
38.714
38.418
38.12
37.82
37.518
37.215
36.912
36.61
36.309
36.01
35.713
35.42
35.128
34.84
34.554
34.269
33.986
33.704
33.421
33.138
32.853
32.566
32.276
31.981
31.682
31.377
31.066
30.747
30.42
30.085
29.739
29.383
29.016
28.638
28.246
27.841
27.421
26.985
26.532
26.061
25.572
25.063
24.534
23.984
23.414
22.824
22.215
21.586
20.94
20.276
19.597
18.904
18.198
17.481
16.755
16.023
15.285
14.545
13.805
13.067
12.333
11.607
10.892
10.188
9.501
8.832
8.185
7.563
6.97
6.409
5.885
5.4
4.959
4.565
4.221
3.931
3.696
3.521
3.406
3.355
3.37
3.452
3.604
3.827
4.121
4.489
4.93
5.446
6.035
6.698
7.435
8.243
9.123
10.072
11.089
12.17
13.314
14.515
15.771
17.076
18.424
19.809
21.224
22.663
24.119
25.584
27.049
28.509
29.955
31.379
32.772
34.122
35.42
36.656
37.819
38.897
39.881
40.76
41.526
42.173
42.695
43.084
43.334
43.438
43.392
43.191
42.833
42.316
41.637
40.799
39.806
38.666
37.383
35.96
34.397
32.69
30.837
28.843
26.712
24.449
22.063
19.566
16.977
14.326
11.642
8.952
6.278
3.644
1.084
-1.362
-3.648
-5.726
-7.56
-9.119
-10.383
-11.337
-11.985
-12.332
-12.401
-12.238
-11.897
-11.451
-10.973
-10.545
-10.251
-10.208
-10.579
-11.467
-12.872
-14.684
-16.655
-18.512
-20.043
-21.012
-21.064
-19.992
-17.913
-15.237
-12.766
-11.372
-11.578
-13.773
-18.427
-25.632
-34.807
-44.736
-53.377
-58.37
-57.815
-50.021
-33.319
-6.361
31.408
79.291
135.462
196.391
257.464
315.505
367.6
411.913
449.21
476.21
486.911
476.437
438.834
375.908
297.255
211.903
129.693
55.959
-9.48
-65.5
-110.89
-144.332
-163.711
-168.917
-161.397
-143.322
-117.866
-88.392
-58.082
-29.562
-4.745
14.741
27.735
33.925
33.724
28.297
19.367
8.395
-3.315
-14.238
-23.12
-29.243
-32.301
-32.57
-30.776
-27.532
-23.484
-19.474
-16.115
-13.749
-12.541
-12.363
-12.923
-13.963
-15.195
-16.281
-17.028
-17.354
-17.225
-16.697
-15.836
-14.685
-13.311
-11.783
-10.138
-8.395
-6.575
-4.687
-2.762
-0.847
1.025
2.831
4.554
6.183
7.707
9.114
10.407
11.596
12.686
13.685
14.599
15.442
16.241
17.028
17.829
18.66
19.531
20.451
21.429
22.474
23.591
24.773
26.006
27.285
28.607
29.975
31.379
32.793
34.174
35.488
36.722
37.884
38.994
40.071
41.142
42.243
43.43
44.777
46.348
48.186
50.322
52.782
55.6
58.831
62.54
66.77
71.544
76.859
82.706
89.07
95.925
103.218
110.866
118.77
126.854
135.07
143.387
151.779
160.21
168.633
177.001
185.281
193.444
201.464
209.306
216.93
224.302
231.405
238.244
244.821
251.108
257.048
262.562
267.569
272.002
275.789
278.85
281.107
282.497
282.973
282.513
281.11
278.76
275.462
271.215
266.036
259.97
253.089
245.486
237.251
228.47
219.234
209.646
199.805
189.794
179.68
169.512
159.329
149.17
139.067
129.05
119.131
109.313
99.586
89.927
80.323
70.766
61.248
51.76
42.296
32.858
23.459
14.121
4.869
-4.278
-13.297
-22.165
-30.855
-39.338
-47.581
-55.553
-63.226
-70.583
-77.605
-84.281
-90.602
-96.564
-102.167
-107.418
-112.323
-116.89
-121.124
-125.031
-128.623
-131.909
-134.901
-137.613
-140.057
-142.244
-144.187
-145.897
-147.385
-148.664
-149.743
-150.634
-151.346
-151.892
-152.284
-152.535
-152.656
-152.659
-152.556
-152.358
-152.075
-151.717
-151.292
-150.808
-150.272
-149.692
-149.075
-148.425
-147.75
-147.053
-146.341
-145.617
-144.886
-144.151
-143.416
-142.685
-141.96
-141.245
-140.541
-139.853
-139.181
-138.529
-137.897
-137.288
-136.702
-136.14
-135.603
-135.091
-134.604
-134.144
-133.71
-133.302
-132.922
-132.57
-132.247
-131.953
-131.691
-131.461
-131.265
-131.105
-130.981
-130.896
-130.851
-130.848
-130.888
-130.973
-131.105
-131.285
-131.513
-131.793
-132.123
-132.506
-132.943
-133.435
-133.983
-134.587
-135.25
-135.972
-136.754
-137.599
-138.506
-139.477
-140.513
-141.614
-142.78
-144.012
-145.31
-146.672
-148.099
-149.588
-151.138
-152.748
-154.416
-156.138
-157.913
-159.737
-161.607
-163.521
-165.474
-167.464
-169.488
-171.541
-173.621
-175.724
-177.846
-179.985
-182.137
-184.298
-186.465
-188.635
-190.803
-192.967
-195.123
-197.266
-199.395
-201.506
-203.596
-205.663
-207.704
-209.718
-211.702
-213.656
-215.578
-217.469
-219.328
-221.156
-222.954
-224.722
-226.462
-228.176
-229.866
-231.533
-233.18
-234.808
-236.42
-238.017
-239.601
-241.174
-242.738
-244.293
-245.84
-247.383
-248.92
-250.454
-251.984
-253.512
-255.039
-256.563
-258.086
-259.607
-261.126
-262.642
-264.154
-265.66
-267.159
-268.649
-270.126
-271.588
-273.031
-274.452
-275.846
-277.209
-278.536
-279.823
-281.066
-282.258
-283.397
-284.477
-285.495
-286.447
-287.33
-288.14
-288.875
-289.533
-290.11
-290.607
-291.021
-291.351
-291.597
-291.758
-291.834
-291.824
-291.73
-291.551
-291.288
-290.942
-290.514
-290.007
-289.421
-288.76
-288.026
-287.223
-286.352
-285.419
-284.426
-283.379
-282.28
-281.133
-279.944
-278.714
-277.449
-276.15
-274.822
-273.466
-272.084
-270.679
-269.251
-267.801
-266.329
-264.836
-263.322
-261.786
-260.228
-258.648
-257.043
-255.414
-253.759
-252.077
-250.368
-248.629
-246.86
-245.059
-243.224
-241.354
-239.447
-237.5
-235.512
-233.48
-231.402
-229.276
-227.101
-224.873
-222.591
-220.254
-217.861
-215.411
-212.903
-210.338
-207.716
-205.038
-202.306
-199.521
-196.686
-193.803
-190.875
-187.905
-184.895
-181.85
-178.771
-175.664
-172.53
-169.374
-166.199
-163.008
-159.805
-156.594
-153.377
-150.159
-146.943
-143.733
-140.531
-137.343
-134.172
-131.021
-127.893
-124.793
-121.723
-118.687
-115.686
-112.725
-109.803
-106.924
-104.087
-101.295
-98.548
-95.845
-93.188
-90.575
-88.005
-85.479
-82.996
-80.553
-78.151
-75.788
-73.462
-71.172
-68.918
-66.696
-64.508
-62.35
-60.221
-58.121
-56.048
-54.001
-51.978
-49.979
-48
-46.041
-44.101
-42.177
-40.268
-38.373
-36.491
-34.62
-32.76
-30.91
-29.07
-27.239
-25.417
-23.604
-21.8
-20.004
-18.217
-16.439
-14.669
-12.91
-11.16
-9.421
-7.691
-5.973
-4.264
-2.565
-0.876
0.805
2.479
4.146
5.808
7.466
9.12
10.772
12.422
14.072
15.722
17.373
19.027
20.683
22.344
24.009
25.681
27.358
29.042
30.732
32.428
34.13
35.837
37.549
39.265
40.984
42.704
44.423
46.139
47.85
49.551
51.238
52.907
54.551
56.164
57.738
59.265
60.735
62.142
63.475
64.726
65.885
66.946
67.9
68.74
69.459
70.049
70.5
70.805
70.957
70.949
70.775
70.43
69.911
69.218
68.353
67.318
66.11
64.723
63.153
61.397
59.456
57.332
55.034
52.573
49.971
47.258
44.464
41.621
38.755
35.885
33.035
30.227
27.494
24.874
22.404
20.114
18.03
16.178
14.566
13.177
11.974
10.894
9.874
8.872
7.84
6.721
5.452
3.957
2.161
0.013
-2.571
-5.707
-9.43
-13.68
-18.267
-22.834
-27.015
-30.528
-33.043
-34.16
-33.704
-31.793
-28.853
-25.712
-23.138
-21.529
-21.264
-22.792
-26.093
-30.539
-34.92
-37.305
-35.732
-28.784
-14.967
7.297
38.861
79.771
129.298
185.641
246.401
308.418
367.037
417.323
455.834
482.398
498.781
506.517
504.727
486.47
444.715
374.299
273.4
152.757
27.368
-85.143
-164.761
-206.298
-213.426
-194.601
-166.834
-137.563
-107.313
-78.668
-48.358
-18.129
5.569
23.012
33.024
36.207
36.874
34.271
28.138
19.762
9.042
-1.668
-9.953
-15.43
-17.836
-17.503
-15.308
-11.774
-7.452
-3.262
0.109
2.392
3.494
3.557
2.878
1.686
0.258
-1.023
-1.921
-2.345
-2.264
-1.748
-0.867
0.351
1.846
3.547
5.415
7.421
9.548
11.794
14.132
16.521
18.917
21.285
23.606
25.87
28.068
30.196
32.25
34.233
36.154
38.015
39.817
41.561
43.249
44.886
46.483
48.053
49.61
51.167
52.736
54.328
55.953
57.618
59.33
61.099
62.929
64.827
66.804
68.869
71.031
73.302
75.692
78.211
80.867
83.669
86.625
89.745
93.037
96.506
100.161
104.007
108.057
112.324
116.815
121.531
126.468
131.62
136.976
142.521
148.236
154.088
160.051
166.099
172.216
178.39
184.608
190.846
197.077
203.27
209.4
215.463
221.452
227.364
233.209
239.003
244.788
250.625
256.559
262.612
268.789
275.068
281.441
287.903
294.445
301.061
307.724
314.39
321.018
327.563
333.947
340.074
345.804
350.961
355.403
359.019
361.727
363.472
364.19
363.815
362.298
359.594
355.678
350.543
344.171
336.561
327.763
317.858
306.986
295.331
283.051
270.288
257.171
243.812
230.342
216.898
203.604
190.593
177.982
165.887
154.44
143.75
133.884
124.878
116.721
109.366
102.777
96.913
91.73
87.191
83.235
79.793
76.797
74.158
71.795
69.629
67.564
65.523
63.452
61.31
59.082
56.777
54.396
51.949
49.455
46.926
44.387
41.869
39.407
37.049
34.837
32.805
30.991
29.421
28.109
27.068
26.297
25.78
25.507
25.46
25.618
25.968
26.486
27.148
27.926
28.788
29.704
30.655
31.62
32.582
33.531
34.454
35.347
36.21
37.042
37.841
38.607
39.336
40.027
40.682
41.3
41.884
42.434
42.949
43.429
43.871
44.273
44.635
44.951
45.219
45.435
45.598
45.705
45.756
45.752
45.692
45.575
45.402
45.174
44.891
44.553
44.16
43.713
43.211
42.655
42.047
41.388
40.677
39.918
39.11
38.255
37.356
36.415
35.432
34.412
33.358
32.272
31.158
30.02
28.861
27.687
26.5
25.305
24.105
22.904
21.706
20.514
19.331
18.162
17.008
15.873
14.759
13.669
12.606
11.571
10.567
9.595
8.657
7.754
6.886
6.054
5.258
4.499
3.776
3.088
2.434
1.814
1.224
0.664
0.13
-0.379
-0.867
-1.335
-1.787
-2.225
-2.652
-3.071
-3.484
-3.893
-4.3
-4.709
-5.12
-5.535
-5.956
-6.384
-6.821
-7.266
-7.722
-8.186
-8.661
-9.144
-9.637
-10.137
-10.645
-11.159
-11.678
-12.199
-12.721
-13.242
-13.76
-14.271
-14.773
-15.264
-15.739
-16.196
-16.634
-17.047
-17.435
-17.795
-18.125
-18.421
-18.684
-18.909
-19.096
-19.244
-19.35
-19.415
-19.437
-19.416
-19.352
-19.244
-19.094
-18.9
-18.663
-18.385
-18.064
-17.703
-17.302
-16.862
-16.384
-15.869
-15.319
