Name,Kevin Dejbod
Date of Birth,"27 Sep 1999"
Recorded Date,2023-10-03 13:03:19 +0800
Classification,Sinus Rhythm
Symptoms,
Software Version,1.90
Device,"Watch5,1"
Sample Rate,512.508 hertz


Lead,Lead I
Unit,µV

25.87
25.245
23.543
20.663
16.545
11.197
4.645
-3.079
-11.913
-21.775
-32.545
-44.039
-56.055
-68.402
-80.883
-93.327
-105.513
-117.134
-128.012
-138.067
-147.327
-156.042
-164.421
-172.438
-180.097
-187.392
-194.062
-199.886
-204.522
-207.225
-207.506
-205.457
-201.441
-196.15
-190.654
-185.694
-181.93
-180.399
-181.711
-185.851
-192.303
-199.689
-206.417
-211.806
-215.278
-217.21
-218.47
-218.142
-216.644
-213.19
-205.062
-193.285
-178.145
-161.293
-149.079
-143.218
-140.537
-134.098
-109.759
-55.226
32.246
148.371
281.559
418.237
549.63
668.104
765.471
830.288
850.463
822.556
750.77
648.203
529.678
398.764
256.482
105.518
-46.498
-179.008
-273.276
-322.183
-329.264
-308.574
-273.016
-229.888
-183.255
-138.01
-103.865
-87.529
-90.452
-106.444
-121.284
-125.499
-115.838
-93.995
-67.488
-41.423
-17.593
2.884
20.569
35.19
45.487
50.839
51.291
47.87
42.006
35.138
28.448
22.628
18.106
15.041
13.154
11.884
10.794
9.522
7.851
5.79
3.376
0.725
-1.87
-4.018
-5.436
-5.977
-5.606
-4.394
-2.418
0.248
3.467
7.038
10.794
14.621
18.462
22.326
26.22
30.131
34.052
37.985
41.93
45.909
49.942
54.032
58.202
62.482
66.919
71.581
76.528
81.801
87.426
93.419
99.786
106.535
113.666
121.165
129.022
137.223
145.758
154.616
163.784
173.239
182.953
192.892
203.018
213.291
223.673
234.119
244.583
255.02
265.383
275.628
285.707
295.57
305.165
314.439
323.341
331.816
339.811
347.272
354.144
360.377
365.92
370.729
374.759
377.967
380.312
381.758
382.275
381.831
380.396
377.94
374.427
369.835
364.154
357.385
349.535
340.626
330.687
319.763
307.919
295.218
281.722
267.484
252.549
236.964
220.793
204.11
186.992
169.511
151.726
133.685
115.43
96.987
78.347
59.461
40.266
20.706
0.709
-19.761
-40.688
-62.047
-83.768
-105.755
-127.988
-150.463
-172.933
-195.103
-216.97
-238.4
-259.195
-279.512
-298.05
-313.523
-327.096
-339.015
-351.735
-368.264
-385.126
-399.984
-409.445
-408.884
-402.44
-393.658
-384.942
-380.238
-376.816
-371.977
-365.334
-355.455
-343.58
-331.176
-318.144
-304.772
-291.121
-277.09
-262.947
-248.886
-234.922
-221.115
-207.64
-194.736
-182.587
-171.333
-161.043
-151.715
-143.439
-136.363
-130.608
-126.308
-123.56
-122.432
-123.051
-125.574
-130.182
-137.08
-146.247
-157.441
-170.414
-184.875
-200.667
-217.89
-236.42
-255.867
-276.121
-297.221
-319.232
-342.406
-366.417
-390.217
-413.018
-434.329
-453.498
-469.973
-483.103
-491.906
-496.208
-496.695
-493.828
-487.935
-479.374
-468.305
-455.153
-440.753
-425.406
-408.91
-391.307
-372.704
-353.315
-333.577
-313.717
-293.73
-273.852
-254.506
-236.011
-218.678
-202.724
-188.194
-175.171
-163.764
-153.975
-145.707
-138.802
-133.051
-128.246
-124.216
-120.789
-117.774
-114.982
-112.245
-109.441
-106.465
-103.215
-99.601
-95.549
-91.014
-85.984
-80.477
-74.534
-68.216
-61.602
-54.782
-47.846
-40.896
-34.04
-27.364
-20.924
-14.766
-8.927
-3.432
1.695
6.451
10.852
14.919
18.676
22.152
25.38
28.406
31.279
34.057
36.799
39.554
42.358
45.244
48.234
51.352
54.614
58.032
61.605
65.338
69.235
73.301
77.541
81.953
86.532
91.27
96.158
101.187
106.348
111.632
117.026
122.522
128.109
133.775
139.511
145.302
151.135
156.992
162.853
168.698
174.503
180.244
185.897
191.438
196.843
202.086
207.146
212.003
216.637
221.032
225.169
229.029
232.594
235.848
238.779
241.375
243.627
245.526
247.068
248.256
249.098
249.601
249.768
249.595
249.075
248.207
246.998
245.464
243.617
241.477
239.068
236.43
233.618
230.688
227.688
224.656
221.624
218.635
215.752
213.048
210.599
208.465
206.689
205.306
204.343
203.811
203.699
203.97
204.547
205.35
206.3
207.315
208.316
209.225
209.905
210.166
209.886
209.038
207.743
206.321
205.129
204.506
204.863
206.684
210.335
215.923
223.048
230.77
237.962
243.558
246.705
246.741
243.312
236.666
228.065
219.774
214.755
216.28
227.182
249.844
286.406
338.26
405.198
485.741
575.95
669.276
761.019
847.296
925.128
994.413
1049.823
1081.877
1083.717
1048.99
979.7
886.729
776.973
656.784
532.015
406.847
294.359
209.401
159.183
143.348
150.868
167.98
187.455
207.935
231.871
260.531
291.519
321.005
345.418
363.505
375.596
382.077
384.229
383.638
381.851
380.426
379.975
380.326
381.432
383.468
386.268
389.305
391.633
392.106
390.17
385.812
379.088
370.017
358.683
345.281
330.289
314.441
298.284
282.097
266.038
250.191
234.66
219.627
205.226
191.478
178.387
165.958
154.195
143.146
132.826
123.174
114.085
105.422
97.048
88.892
80.933
73.156
65.557
58.123
50.837
43.717
36.802
30.12
23.695
17.54
11.666
6.114
0.953
-3.74
-7.89
-11.45
-14.404
-16.739
-18.459
-19.583
-20.133
-20.15
-19.682
-18.759
-17.398
-15.6
-13.364
-10.696
-7.626
-4.198
-0.457
3.562
7.834
12.338
17.066
22.022
27.22
32.688
38.447
44.483
50.75
57.174
63.667
70.135
76.522
82.78
88.851
94.673
100.168
105.257
109.849
113.835
117.086
119.454
120.814
121.085
120.249
118.314
115.307
111.268
106.184
100.063
92.949
84.886
75.952
66.239
55.854
44.944
33.709
22.358
11.075
0.004
-10.776
-21.19
-31.167
-40.642
-49.499
-57.658
-65.08
-71.725
-77.578
-82.655
-86.984
-90.648
-93.798
-96.572
-99.077
-101.398
-103.567
-105.624
-107.627
-109.624
-111.69
-113.881
-116.22
-118.739
-121.463
-124.388
-127.497
-130.732
-133.981
-137.158
-140.209
-143.087
-145.781
-148.271
-150.529
-152.535
-154.272
-155.726
-156.893
-157.763
-158.322
-158.575
-158.537
-158.241
-157.746
-157.095
-156.312
-155.423
-154.438
-153.367
-152.227
-151.02
-149.743
-148.397
-146.984
-145.508
-143.981
-142.405
-140.779
-139.1
-137.359
-135.551
-133.674
-131.727
-129.708
-127.618
-125.46
-123.237
-120.957
-118.627
-116.248
-113.823
-111.352
-108.834
-106.272
-103.664
-101.009
-98.306
-95.554
-92.753
-89.903
-87.002
-84.049
-81.043
-77.983
-74.868
-71.697
-68.47
-65.184
-61.841
-58.439
-54.979
-51.462
-47.888
-44.256
-40.569
-36.827
-33.032
-29.185
-25.289
-21.345
-17.355
-13.324
-9.255
-5.152
-1.02
3.136
7.31
11.495
15.684
19.871
24.047
28.205
32.337
36.434
40.489
44.493
48.437
52.313
56.113
59.83
63.456
66.982
70.403
73.712
76.903
79.97
82.909
85.714
88.383
90.913
93.301
95.546
97.648
99.607
101.425
103.103
104.645
106.053
107.333
108.491
109.53
110.46
111.286
112.018
112.664
113.233
113.735
114.18
114.58
114.944
115.284
115.611
115.936
116.268
116.62
117.001
117.422
117.892
118.419
119.012
119.679
120.427
121.261
122.186
123.206
124.322
125.538
126.852
128.265
129.774
131.375
133.064
134.836
136.685
138.602
140.579
142.606
144.67
146.76
148.861
150.956
153.028
155.057
157.025
158.912
160.699
162.367
163.898
165.276
166.486
167.51
168.334
168.937
169.306
169.427
169.288
168.88
168.194
167.221
165.959
164.413
162.585
160.472
158.066
155.353
152.324
148.981
145.333
141.388
137.158
132.66
127.925
123.003
117.947
112.802
107.606
102.391
97.197
92.089
87.148
82.45
78.066
74.036
70.383
67.148
64.351
61.987
60.033
58.407
57.005
55.751
54.552
53.308
51.94
50.279
48.093
45.259
41.738
37.668
33.41
29.257
25.434
22.296
20.262
19.664
20.666
22.811
25.094
26.638
26.719
24.845
20.761
14.243
5.471
-4.2
-12.446
-16.69
-14.218
-2.907
18.997
53.456
101.832
164.015
238.488
322.543
412.337
504.036
593.463
675.175
743.484
793.433
821.062
825.199
807.671
770.103
713.918
638.379
541.516
427.047
305.413
194.231
112.016
67.439
57.088
67.057
82.049
93.818
101.538
109.53
120.622
133.599
145.59
153.354
155.906
154.471
150.563
145.818
141.557
138.649
137.558
138.207
140.143
142.724
145.36
147.597
148.981
149.08
147.696
144.843
140.677
135.488
129.528
122.982
116.08
109.045
102.072
95.366
89.057
83.208
77.883
73.118
68.932
65.356
62.387
59.986
58.12
56.749
55.83
55.335
55.218
55.418
55.87
56.505
57.273
58.149
59.116
60.165
61.294
62.503
63.806
65.228
66.785
68.485
70.328
72.312
74.441
76.728
79.191
81.836
84.662
87.664
90.837
94.163
97.62
101.165
104.739
108.293
111.795
115.224
118.575
121.84
125.009
128.08
131.051
133.924
136.708
139.401
141.993
144.495
146.931
149.346
151.815
154.384
157.066
159.864
162.757
165.71
168.675
171.581
174.337
176.854
179.044
180.819
182.1
182.792
182.792
181.986
180.245
177.464
173.572
168.514
162.26
154.815
146.211
136.508
125.796
114.176
101.759
88.68
75.094
61.151
46.994
32.766
18.607
4.651
-8.976
-22.166
-34.831
-46.903
-58.338
-69.099
-79.154
-88.501
-97.165
-105.206
-112.731
-119.82
-126.53
-132.911
-139.002
-144.845
-150.491
-155.972
-161.299
-166.489
-171.555
-176.525
-181.45
-186.343
-191.193
-195.956
-200.553
-204.93
-209.062
-212.925
-216.505
-219.791
-222.768
-225.444
-227.847
-229.993
-231.89
-233.533
-234.897
-235.98
-236.8
-237.389
-237.793
-238.051
-238.188
-238.232
-238.212
-238.152
-238.071
-237.978
-237.867
-237.74
-237.607
-237.48
-237.379
-237.316
-237.297
-237.326
-237.403
-237.531
-237.709
-237.936
-238.205
-238.513
-238.857
-239.239
-239.663
-240.13
-240.639
-241.189
-241.779
-242.405
-243.066
-243.757
-244.473
-245.21
-245.963
-246.73
-247.507
-248.293
-249.084
-249.876
-250.667
-251.454
-252.234
-253.002
-253.756
-254.491
-255.206
-255.897
-256.563
-257.202
-257.812
-258.392
-258.941
-259.46
-259.946
-260.399
-260.819
-261.204
-261.556
-261.872
-262.154
-262.401
-262.612
-262.79
-262.934
-263.045
-263.123
-263.168
-263.182
-263.164
-263.115
-263.036
-262.926
-262.788
-262.621
-262.427
-262.208
-261.964
-261.697
-261.409
-261.099
-260.771
-260.424
-260.062
-259.684
-259.292
-258.889
-258.476
-258.055
-257.627
-257.194
-256.759
-256.322
-255.886
-255.451
-255.019
-254.592
-254.17
-253.754
-253.347
-252.948
-252.558
-252.176
-251.803
-251.438
-251.079
-250.726
-250.377
-250.028
-249.679
-249.326
-248.966
-248.597
-248.213
-247.812
-247.389
-246.939
-246.457
-245.936
-245.37
-244.753
-244.077
-243.337
-242.526
-241.636
-240.662
-239.596
-238.432
-237.165
-235.787
-234.294
-232.679
-230.938
-229.067
-227.062
-224.922
-222.645
-220.229
-217.675
-214.985
-212.16
-209.203
-206.117
-202.905
-199.573
-196.126
-192.573
-188.921
-185.18
-181.362
-177.482
-173.556
-169.6
-165.63
-161.664
-157.719
-153.813
-149.961
-146.178
-142.477
-138.874
-135.384
-132.026
-128.816
-125.766
-122.89
-120.2
-117.707
-115.423
-113.35
-111.488
-109.838
-108.404
-107.199
-106.244
-105.55
-105.119
-104.949
-105.036
-105.369
-105.933
-106.694
-107.598
-108.592
-109.63
-110.672
-111.695
-112.66
-113.511
-114.187
-114.618
-114.751
-114.565
-114.036
-113.143
-111.893
-110.308
-108.447
-106.429
-104.369
-102.366
-100.536
-98.965
-97.739
-97.003
-96.922
-97.605
-99.061
-101.154
-103.599
-106.113
-108.424
-110.168
-110.884
-110.166
-107.828
-104.121
-99.734
-95.453
-91.934
-89.731
-89.344
-91.06
-94.768
-99.518
-103.435
-104.155
-99.215
-86.4
-63.642
-29.147
18.302
78.797
150.97
232.004
318.08
405.084
488.136
561.82
620.828
659.969
676.657
671.786
646.685
603.312
540.794
454.531
346.017
222.994
101.55
5.316
-52.351
-70.101
-57.929
-36.088
-17.459
-6.239
-1.296
3.924
11.523
19.563
26.077
28.46
26.519
22.164
17.039
12.788
10.678
11.024
13.748
18.492
24.531
31.17
37.847
44.018
49.227
53.256
56.051
57.693
58.386
58.325
57.67
56.587
55.231
53.739
52.24
50.878
49.79
49.085
48.84
49.106
49.906
51.257
53.164
55.6
58.522
61.892
65.668
69.821
74.329
79.15
84.235
89.528
94.968
100.516
106.146
111.842
117.596
123.405
129.274
135.221
141.271
147.441
153.741
160.178
166.752
173.469
180.334
187.348
194.511
201.819
209.265
216.843
224.543
232.352
240.256
248.236
256.27
264.338
272.416
280.476
288.492
296.431
304.26
311.948
319.461
326.767
333.831
340.62
347.105
353.25
359.02
364.376
369.272
373.669
377.536
380.848
383.588
385.749
387.335
388.353
388.818
388.736
388.107
386.917
385.142
382.757
379.738
376.076
371.783
366.868
361.341
355.206
348.467
341.107
333.101
324.415
315.006
304.857
293.98
282.425
270.28
257.654
244.678
231.464
218.102
204.677
191.27
177.962
164.837
151.997
139.556
127.647
116.421
106
96.468
87.863
80.171
73.339
67.28
61.92
57.202
53.078
49.513
46.475
43.931
41.838
40.146
38.779
37.635
36.627
35.687
34.779
33.907
33.1
32.414
31.897
31.582
31.492
31.628
31.984
32.545
33.294
34.208
35.281
36.523
37.94
39.536
41.298
43.199
45.199
47.244
49.286
51.28
53.19
54.989
56.661
58.194
59.587
60.844
61.965
62.945
63.781
64.465
64.996
65.379
65.62
65.727
65.712
65.588
65.367
65.059
64.675
64.222
63.706
63.131
62.5
61.82
61.098
60.34
59.554
58.748
57.928
57.104
56.28
55.462
54.654
53.859
53.079
52.317
51.573
50.848
50.141
49.452
48.781
48.125
47.483
46.853
46.232
45.617
45.007
44.397
43.784
43.167
42.542
41.906
41.258
40.595
39.914
39.216
38.496
37.755
36.991
36.203
35.39
34.551
33.686
32.795
31.88
30.941
29.981
29.001
28.003
26.991
25.967
24.935
23.897
22.856
21.817
20.782
19.756
18.74
17.739
16.755
15.79
14.847
13.929
13.036
12.171
11.334
10.528
9.752
9.008
8.296
7.617
6.969
6.354
5.769
5.214
4.686
4.185
3.709
3.254
2.82
2.403
2.001
1.611
1.23
0.856
0.486
0.116
-0.255
-0.629
-1.01
-1.397
-1.793
-2.198
-2.612
-3.036
-3.468
-3.907
-4.354
-4.806
-5.263
-5.723
-6.183
-6.641
-7.095
-7.541
-7.976
-8.396
-8.796
-9.172
-9.52
-9.836
-10.115
-10.353
-10.545
-10.686
-10.773
-10.801
-10.767
-10.666
-10.496
-10.254
-9.939
-9.551
-9.089
-8.554
-7.949
-7.276
-6.54
-5.746
-4.899
-4.004
-3.068
-2.099
-1.106
-0.099
0.913
1.917
2.9
3.845
4.737
5.559
6.295
6.926
7.436
7.806
8.023
8.071
7.939
7.61
7.072
6.307
5.305
4.054
2.546
0.775
-1.266
-3.582
-6.171
-9.026
-12.142
-15.518
-19.16
-23.079
-27.278
-31.751
-36.488
-41.477
-46.703
-52.145
-57.767
-63.515
-69.337
-75.184
-81.014
-86.797
-92.483
-98.012
-103.312
-108.306
-112.935
-117.161
-120.958
-124.302
-127.193
-129.642
-131.69
-133.445
-135.016
-136.514
-138.055
-139.739
-141.659
-143.975
-146.892
-150.498
-154.802
-159.659
-164.721
-169.731
-174.475
-178.574
-181.604
-183.299
-183.499
-182.514
-181.218
-180.223
-180.003
-181.204
-184.122
-188.72
-195.094
-202.536
-208.974
-212.749
-211.252
-200.134
-177.706
-143.606
-98.271
-47.474
5.699
64.015
130.035
211.642
314.097
429.741
545.773
641.745
694.821
694.795
641.644
545.264
422.145
283.416
136.722
-11.789
-153.511
-272.628
-356.925
-400.765
-408.824
-397.672
-379.462
-360.492
-342.312
-319.706
-291.972
-263.063
-236.501
-216.757
-206.05
-203.344
-206.952
-214.823
-224.374
-233.206
-240.035
-244.109
-244.787
-242.18
-236.764
-229.117
-220.487
-212.319
-205.327
-199.905
-196.338
-194.492
-194.206
-195.311
-197.294
-199.551
-201.686
-203.393
-204.501
-205.008
-204.879
-204.073
-202.618
-200.552
-197.922
-194.791
-191.183
-187.107
-182.588
-177.658
-172.374
-166.807
-161.028
-155.104
-149.078
-142.97
-136.799
-130.57
-124.286
-117.948
-111.539
-105.031
-98.411
-91.666
-84.788
-77.775
-70.61
-63.277
-55.765
-48.064
-40.173
-32.096
-23.839
-15.408
-6.816
1.918
10.775
19.729
28.756
37.834
46.936
56.037
65.107
74.114
83.028
91.815
100.442
108.872
117.069
124.993
132.609
139.879
146.768
153.238
159.256
164.788
169.803
174.271
178.163
181.455
184.124
186.148
187.511
188.2
188.204
187.515
186.13
184.051
181.28
177.825
173.698
168.912
163.487
157.442
150.804
143.599
135.859
127.617
118.909
109.774
100.253
90.389
80.226
69.81
59.186
48.402
37.504
26.539
15.553
4.591
-6.302
-17.084
-27.711
-38.146
-48.35
-58.288
-67.929
-77.241
-86.197
-94.774
-102.951
-110.708
-118.03
-124.905
-131.324
-137.281
-142.771
-147.794
-152.354
-156.454
-160.104
-163.312
-166.092
-168.458
-170.427
-172.016
-173.246
-174.137
-174.712
-174.992
-175.001
-174.763
-174.301
-173.64
-172.803
-171.813
-170.693
-169.464
-168.147
-166.762
-165.328
-163.862
-162.381
-160.9
-159.432
-157.991
-156.588
-155.232
-153.933
-152.696
-151.527
-150.431
-149.411
-148.468
-147.603
-146.814
-146.102
-145.462
-144.891
-144.386
-143.941
-143.552
-143.212
-142.914
-142.653
-142.423
-142.215
-142.025
-141.845
-141.67
-141.494
-141.311
-141.115
-140.903
-140.669
-140.409
-140.118
-139.795
-139.434
-139.035
-138.594
-138.11
-137.581
-137.006
-136.385
-135.718
-135.003
-134.243
-133.437
-132.586
-131.693
-130.758
-129.783
-128.771
-127.724
-126.643
-125.532
-124.393
-123.228
-122.039
-120.829
-119.6
-118.354
-117.094
-115.821
-114.538
-113.246
-111.948
-110.646
-109.341
-108.036
-106.732
-105.43
-104.134
-102.844
-101.562
-100.291
-99.033
-97.788
-96.56
-95.35
-94.16
-92.992
-91.848
-90.729
-89.637
-88.574
-87.542
-86.542
-85.577
-84.649
-83.758
-82.907
-82.098
-81.331
-80.61
-79.934
-79.306
-78.727
-78.199
-77.721
-77.296
-76.924
-76.604
-76.338
-76.126
-75.966
-75.859
-75.803
-75.797
-75.84
-75.93
-76.066
-76.244
-76.464
-76.722
-77.015
-77.34
-77.695
-78.073
-78.473
-78.89
-79.319
-79.757
-80.198
-80.637
-81.069
-81.489
-81.891
-82.269
-82.618
-82.931
-83.203
-83.429
-83.604
-83.721
-83.776
-83.764
-83.68
-83.519
-83.278
-82.951
-82.535
-82.024
-81.416
-80.707
-79.895
-78.977
-77.95
-76.813
-75.564
-74.202
-72.728
-71.14
-69.438
-67.624
-65.7
-63.667
-61.53
-59.289
-56.951
-54.519
-52
-49.4
-46.726
-43.984
-41.181
-38.326
-35.429
-32.497
-29.54
-26.568
-23.591
-20.626
-17.689
-14.795
-11.961
-9.202
-6.532
-3.968
-1.522
0.794
2.974
5.009
6.889
8.601
10.132
11.47
12.608
13.544
14.278
14.811
15.147
15.294
15.258
15.043
14.644
14.045
13.232
12.2
10.949
9.486
7.83
6.01
4.06
2.024
-0.079
-2.234
-4.418
-6.599
-8.712
-10.684
-12.456
-13.975
-15.176
-15.972
-16.315
-16.263
-16.014
-15.794
-15.73
-15.796
-15.891
-16.065
-16.346
-16.566
-16.367
-15.346
-13.398
-10.914
-8.457
-6.194
-4.2
-2.723
-2.156
-2.997
-5.398
-8.799
-12.44
-16.18
-20.113
-24.225
-28.433
-32.377
-35.677
-38.403
-40.659
-41.748
-40.493
-35.533
-25.22
-8.152
16.886
51.447
96.897
154.086
222.367
298.634
379.045
459.886
539.596
621.022
705.823
790.016
864.131
911.245
914.79
869.36
777.389
648.316
497.62
337.486
181.123
46.773
-51.905
-107.875
-123.346
-113.81
-96.553
-80.965
-69.818
-58.894
-42.331
-20.101
5.025
29.553
49.609
63.722
72.076
75.293
74.707
71.688
66.952
60.937
54.269
47.892
42.781
39.456
37.907
37.72
38.476
39.937
41.724
43.175
43.69
42.952
40.932
37.883
34.161
30.043
25.833
21.922
18.593
15.997
14.206
13.173
12.821
13.105
13.964
15.323
17.143
19.401
22.062
25.106
28.486
32.132
36
40.06
44.29
48.689
53.256
57.993
62.919
68.059
73.429
79.039
84.89
90.976
97.299
103.865
110.68
117.747
125.068
132.64
140.456
148.507
156.779
165.252
173.902
182.7
191.62
200.635
209.719
218.842
227.974
237.082
246.134
255.096
263.931
272.603
281.071
289.299
297.246
304.876
312.153
319.038
325.498
331.499
337.009
341.998
346.439
350.306
353.575
356.225
358.238
359.598
360.294
360.315
359.654
358.311
356.285
353.583
350.211
346.183
341.514
336.224
330.336
323.875
316.87
309.353
301.359
292.924
284.088
274.893
265.38
255.594
245.579
235.383
225.049
214.624
204.153
193.68
183.249
172.903
162.683
152.629
142.78
133.172
123.839
114.814
106.127
97.803
89.869
82.343
75.244
68.586
62.38
56.634
51.352
46.535
42.181
38.287
34.843
31.839
29.263
27.1
25.33
23.935
22.894
22.184
21.782
21.662
21.799
22.168
22.743
23.497
24.404
25.437
26.571
27.779
29.036
30.318
31.601
32.862
34.081
35.237
36.314
37.294
38.163
38.908
39.52
39.988
40.308
40.472
40.479
40.327
40.017
39.55
38.932
38.166
37.26
36.221
35.057
33.778
32.392
30.91
29.342
27.7
25.994
24.235
22.436
20.607
18.762
16.91
15.064
13.234
11.431
9.665
7.943
6.276
4.669
3.129
1.663
0.274
-1.033
-2.256
-3.393
-4.445
-5.41
-6.292
-7.092
-7.814
-8.462
-9.04
-9.553
-10.006
-10.405
-10.755
-11.062
-11.333
-11.573
-11.788
-11.986
-12.173
-12.355
-12.539
-12.731
-12.936
-13.161
-13.41
-13.69
-14.005
-14.359
-14.757
-15.202
-15.697
-16.246
-16.851
-17.513
-18.234
-19.014
-19.852
-20.749
-21.703
-22.714
-23.779
-24.897
-26.067
-27.285
-28.552
-29.863
-31.217
-32.611
-34.043
-35.511
-37.011
-38.542
-40.101
-41.686
-43.293
-44.92
-46.565
-48.225
-49.896
-51.577
-53.264
-54.954
-56.645
-58.332
-60.014
-61.686
-63.347
-64.992
-66.619
-68.225
-69.806
-71.359
-72.88
-74.367
-75.815
-77.22
-78.579
-79.887
-81.139
-82.332
-83.459
-84.516
-85.499
-86.401
-87.217
-87.944
-88.575
-89.106
-89.532
-89.848
-90.05
-90.135
-90.097
-89.934
-89.64
-89.215
-88.655
-87.958
-87.124
-86.152
-85.04
-83.79
-82.402
-80.878
-79.22
-77.43
-75.511
-73.468
-71.306
-69.031
-66.649
-64.168
-61.597
-58.946
-56.224
-53.444
-50.615
-47.749
-44.86
-41.96
-39.064
-36.185
-33.34
-30.543
-27.815
-25.174
-22.637
-20.226
-17.957
-15.85
-13.923
-12.19
-10.666
-9.363
-8.294
-7.469
-6.906
-6.616
-6.608
-6.892
-7.474
-8.36
-9.554
-11.056
-12.858
-14.951
-17.33
-19.995
-22.956
-26.218
-29.777
-33.626
-37.751
-42.135
-46.756
-51.582
-56.556
-61.622
-66.726
-71.821
-76.876
-81.852
-86.698
-91.346
-95.719
-99.749
-103.393
-106.62
-109.402
-111.725
-113.603
-115.082
-116.244
-117.192
-118.026
-118.841
-119.747
-120.855
-122.274
-124.17
-126.752
-130.139
-134.331
-139.167
-144.295
-149.342
-153.981
-157.762
-160.121
-160.662
-159.281
-156.4
-152.991
-150.09
-148.508
-148.937
-151.999
-157.93
-166.389
-176.017
-184.315
-188.316
-185.146
-172.175
-146.86
-107.337
-52.697
16.853
99.465
191.737
289.688
387.889
478.716
556.641
617.603
659.016
683.821
692.044
678.951
640.864
568.81
457.206
314.267
152.532
-5.401
-132.06
-215.677
-254.41
-258.474
-249.271
-238.634
-230.33
-222.967
-209.149
-187.25
-160.756
-133.64
-111.009
-95.253
-86.267
-83.587
-85.848
-91.347
-98.531
-105.858
-112.045
-116.338
-118.153
-117.182
-113.582
-107.883
-100.915
-93.611
-86.873
-81.268
-77.136
-74.651
-73.738
-74.206
-75.744
-77.905
-80.179
-82.192
-83.722
-84.655
-84.99
-84.732
-83.874
-82.456
-80.549
-78.216
-75.501
-72.431
-69.006
-65.241
-61.187
-56.904
-52.463
-47.931
-43.343
-38.716
-34.06
-29.372
-24.649
-19.882
-15.044
-10.105
-5.037
0.187
5.583
11.159
16.926
22.898
29.077
35.461
42.03
48.752
55.597
62.535
69.541
76.598
83.685
90.785
97.882
104.954
111.991
119.008
126.021
133.06
140.16
147.357
154.7
162.263
170.1
178.245
186.72
195.508
204.574
213.864
223.309
232.844
242.385
251.81
260.971
269.709
277.863
285.291
291.841
297.324
301.558
304.396
305.718
305.467
303.631
300.218
295.266
288.819
280.94
271.746
261.399
250.069
237.914
225.065
211.648
197.853
183.903
169.99
156.279
142.877
129.842
117.236
105.112
93.511
82.462
71.955
61.932
52.354
43.214
34.527
26.331
18.593
11.218
4.137
-2.697
-9.291
-15.624
-21.693
-27.516
-33.092
-38.405
-43.427
-48.103
-52.41
-56.365
-59.995
-63.348
-66.426
-69.178
-71.577
-73.615
-75.3
-76.659
-77.698
-78.408
-78.799
-78.905
-78.76
-78.408
-77.873
-77.155
-76.258
-75.179
-73.937
-72.574
-71.12
-69.597
-68.025
-66.418
-64.8
-63.202
-61.64
-60.114
-58.628
-57.18
-55.778
-54.435
-53.158
-51.951
-50.815
-49.746
-48.741
-47.799
-46.916
-46.084
-45.298
-44.546
-43.822
-43.126
-42.454
-41.801
-41.163
-40.536
-39.914
-39.298
-38.682
-38.064
-37.441
-36.81
-36.17
-35.522
-34.867
-34.206
-33.54
-32.873
-32.208
-31.549
-30.902
-30.272
-29.664
-29.086
-28.546
-28.051
-27.61
-27.232
-26.925
-26.701
-26.568
-26.535
-26.613
-26.809
-27.133
-27.592
-28.194
-28.946
-29.854
-30.923
-32.158
-33.562
-35.139
-36.889
-38.815
-40.916
-43.189
-45.633
-48.244
-51.017
-53.947
-57.026
-60.248
-63.603
-67.083
-70.676
-74.373
-78.161
-82.029
-85.961
-89.946
-93.969
-98.015
-102.07
-106.119
-110.147
-114.138
-118.079
-121.955
-125.75
-129.452
-133.046
-136.52
-139.861
-143.057
-146.097
-148.97
-151.667
-154.179
-156.497
-158.615
-160.526
-162.224
-163.704
-164.962
-165.996
-166.802
-167.38
-167.729
-167.849
-167.742
-167.408
-166.851
-166.073
-165.078
-163.87
-162.454
-160.836
-159.023
-157.021
-154.837
-152.479
-149.955
-147.274
-144.444
-141.473
-138.372
-135.15
-131.816
-128.382
-124.858
-121.256
-117.587
-113.863
-110.096
-106.299
-102.484
-98.663
-94.851
-91.059
-87.302
-83.594
-79.949
-76.384
-72.914
-69.558
-66.333
-63.253
-60.338
-57.605
-55.073
-52.761
-50.681
-48.847
-47.27
-45.965
-44.944
-44.219
-43.797
-43.682
-43.879
-44.393
-45.231
-46.397
-47.889
-49.69
-51.786
-54.166
-56.826
-59.774
-63.007
-66.512
-70.272
-74.274
-78.506
-82.953
-87.582
-92.336
-97.145
-101.942
-106.679
-111.335
-115.895
-120.334
-124.592
-128.575
-132.194
-135.399
-138.163
-140.479
-142.317
-143.603
-144.356
-144.763
-145.14
-145.815
-146.95
-148.47
-150.246
-152.362
-154.933
-157.856
-160.688
-162.728
-163.468
-162.963
-161.591
-159.397
-156.202
-152.007
-147.204
-142.788
-139.911
-139.012
-140.003
-143.032
-148.278
-155.693
-164.899
-174.565
-182.519
-186.804
-185.404
-175.999
-156.638
-125.279
-80.033
-20.089
54.517
141.583
236.2
333.623
428.923
519.955
608.335
690.825
761.111
808.675
818.28
783.559
705.808
590.556
449.213
292.485
130.58
-20.472
-142.252
-223.58
-261.568
-265.708
-255.631
-243.842
-234.879
-227.459
-214.417
-193.943
-169.475
-144.769
-124.341
-110.456
-102.85
-100.696
-102.793
-107.76
-114.251
-121.296
-128.067
-133.509
-136.829
-137.734
-136.172
-132.559
-127.671
-122.093
-116.463
-111.538
-107.763
-105.315
-104.285
-104.491
-105.416
-106.674
-107.958
-108.904
-109.625
-109.517
-106.798
-101.674
-95.664
-91.775
-95.604
-106.637
-119.232
-127.45
-122.918
-105.56
-83.322
-62.159
-48.638
-43.999
-42.647
-41.495
-38.542
-32.836
-26.43
-20.258
-14.021
-7.774
-1.218
5.901
13.425
21.145
29.029
37.001
44.915
52.798
60.689
68.562
76.46
84.407
92.372
100.355
108.364
116.38
124.419
132.493
140.594
148.742
156.956
165.279
173.791
182.55
191.591
200.919
210.485
220.246
230.159
240.153
250.145
260.016
269.598
278.761
287.403
295.413
302.689
309.092
314.431
318.558
321.369
322.791
322.811
321.422
318.614
314.436
308.973
302.356
294.767
286.349
277.201
267.435
257.157
246.5
235.646
224.733
213.863
203.125
192.578
182.282
172.304
162.663
153.337
144.285
135.43
126.733
118.191
109.797
101.548
93.434
85.427
77.523
69.743
62.104
54.625
47.319
40.193
33.274
26.61
20.253
14.26
8.67
3.503
-1.225
-5.503
-9.325
-12.686
-15.597
-18.078
-20.147
-21.819
-23.109
-24.029
-24.599
-24.846
-24.798
-24.483
-23.927
-23.154
-22.187
-21.052
-19.771
-18.364
-16.849
-15.241
-13.558
-11.819
-10.042
-8.246
-6.449
-4.667
-2.915
-1.21
0.436
2.01
3.503
4.906
6.212
7.416
8.512
9.497
10.368
11.123
11.761
12.28
12.68
12.963
13.128
13.177
13.112
12.934
12.646
12.249
11.746
11.14
10.432
9.626
8.724
7.729
6.643
5.472
4.216
2.88
1.468
-0.018
-1.574
-3.198
-4.886
-6.638
-8.449
-10.319
-12.247
-14.23
-16.269
-18.361
-20.505
-22.7
-24.944
-27.236
-29.574
-31.956
-34.38
-36.844
-39.345
-41.882
-44.45
-47.047
-49.67
-52.315
-54.979
-57.658
-60.348
-63.046
-65.747
-68.449
-71.147
-73.839
-76.521
-79.189
-81.841
-84.472
-87.081
-89.662
-92.212
-94.728
-97.206
-99.641
-102.032
-104.373
-106.661
-108.892
-111.063
-113.17
-115.209
-117.178
-119.071
-120.886
-122.62
-124.269
-125.83
-127.3
-128.677
-129.959
-131.142
-132.223
-133.2
-134.069
-134.826
-135.468
-135.991
-136.392
-136.665
-136.808
-136.816
-136.686
-136.414
-135.998
-135.433
-134.718
-133.848
-132.823
-131.64
-130.299
-128.797
-127.138
-125.323
-123.356
-121.24
-118.978
-116.569
-114.024
-111.353
-108.552
-105.619
-102.555
-99.36
-96.056
-92.675
-89.216
-85.678
-82.116
-78.574
-75.094
-71.73
-68.472
-65.277
-62.195
-59.299
-56.461
-53.523
-50.608
-47.721
-44.84
-42.359
-39.269
-34.59
-29.755
-25.193
-23.51
-27.836
-34.72
-41.878
-45.892
-42.047
-34.508
-26.808
-21.364
-22.175
-26.362
-30.976
-35.321
-37.578
-38.724
-40.057
-41.311
-42.611
-43.825
-44.605
-45.03
-45.202
-45.062
-44.57
-43.762
-42.622
-41.081
-39.277
-37.444
-35.774
-34.557
-33.899
-33.629
-33.827
-34.829
-36.656
-39.115
-41.805
-43.906
-45.118
-45.824
-45.976
-45.141
-43.178
-40.093
-36.465
-33.837
-33.086
-34.046
-36.893
-41.919
-49.042
-58.213
-68.498
-77.384
-82.536
-82.291
-74.472
-56.965
-27.976
14.728
72.422
144.452
229.489
325.586
429.273
536.299
641.733
739.188
822.201
885.227
923.112
931.503
909.447
859.083
783.151
686.56
570.987
433.914
279.399
116.079
-39.738
-163.363
-241.135
-270.997
-261.778
-234.371
-202.928
-173.369
-147.052
-119.228
-89.466
-61.643
-39.394
-26.61
-24.132
-29.952
-41.586
-56.088
-70.621
-82.939
-91.391
-95.205
-94.367
-89.385
-81.208
-70.99
-60.107
-49.991
-41.618
-35.449
-31.58
-29.802
-29.77
-31.111
-33.293
-35.672
-37.768
-39.26
-39.984
-39.931
-39.093
-37.445
-35.002
-31.815
-27.935
-23.421
-18.307
-12.607
-6.353
0.408
7.607
15.16
22.988
31.016
39.194
47.493
55.892
64.374
72.934
81.57
90.29
99.112
108.052
117.121
126.337
135.707
145.235
154.932
164.794
174.807
184.945
195.158
205.393
215.612
225.779
235.869
245.873
255.772
265.55
275.203
284.703
294.031
303.173
312.098
320.786
329.241
337.472
345.525
353.457
361.282
368.991
376.555
383.898
390.944
397.601
403.742
409.267
414.092
418.133
421.338
423.657
425.009
425.306
424.435
422.256
418.691
413.694
407.243
399.38
390.166
379.699
368.135
355.616
342.253
328.158
313.409
298.079
282.278
266.115
249.717
233.243
216.814
200.534
184.504
168.777
153.383
138.33
123.574
109.078
94.838
80.857
67.16
53.782
40.738
28.048
15.731
3.787
-7.781
-18.966
-29.771
-40.183
-50.175
-59.715
-68.751
-77.238
-85.148
-92.465
-99.186
-105.316
-110.864
-115.844
-120.283
-124.202
-127.622
-130.565
-133.048
-135.095
-136.735
-138.002
-138.93
-139.558
-139.922
-140.055
-139.99
-139.757
-139.385
-138.9
-138.323
-137.677
-136.984
-136.266
-135.546
-134.844
-134.181
-133.572
-133.035
-132.585
-132.234
-131.991
-131.863
-131.856
-131.975
-132.22
-132.595
-133.096
-133.724
-134.474
-135.342
-136.324
-137.412
-138.6
-139.88
-141.242
-142.677
-144.177
-145.731
-147.329
-148.961
-150.618
-152.29
-153.968
-155.643
-157.306
-158.948
-160.562
-162.141
-163.676
-165.162
-166.593
-167.965
-169.272
-170.513
-171.685
-172.787
-173.818
-174.78
-175.672
-176.498
-177.258
-177.957
-178.596
-179.18
-179.712
-180.196
-180.637
-181.04
-181.408
-181.746
-182.059
-182.351
-182.626
-182.887
-183.138
-183.382
-183.62
-183.855
-184.087
-184.318
-184.547
-184.774
-185
-185.223
-185.441
-185.652
-185.852
-186.039
-186.208
-186.353
-186.469
-186.549
-186.586
-186.575
-186.509
-186.38
-186.183
-185.909
-185.553
-185.107
-184.566
-183.924
-183.174
-182.311
-181.332
-180.233
-179.013
-177.671
-176.206
-174.621
-172.917
-171.097
-169.165
-167.126
-164.985
-162.748
-160.424
-158.02
-155.548
-153.02
-150.45
-147.853
-145.248
-142.652
-140.084
-137.563
-135.11
-132.747
-130.495
-128.372
-126.396
-124.584
-122.953
-121.523
-120.309
-119.324
-118.574
-118.069
-117.815
-117.823
-118.102
-118.651
-119.458
-120.513
-121.814
-123.362
-125.17
-127.239
-129.554
-132.105
-134.882
-137.876
-141.079
-144.456
-147.947
-151.487
-155.009
-158.466
-161.837
-165.093
-168.195
-171.079
-173.644
-175.81
-177.544
-178.813
-179.606
-179.895
-179.596
-178.75
-177.583
-176.419
-175.608
-175.342
-175.533
-176.123
-177.303
-179.145
-181.47
-183.687
-184.847
-184.406
-182.545
-179.586
-175.515
-170.333
-164.209
-158.012
-153.48
-151.876
-153.378
-157.707
-164.655
-173.883
-184.954
-196.586
-206.068
-210.73
-208.704
-198.315
-177.918
-146.133
-101.57
-43.461
27.376
109.51
201.599
299.818
398.083
490.935
572.245
640.885
701.629
755.033
799.105
823.362
808.066
741.15
616.867
443.693
248.166
56.765
-102.225
-210.361
-269.662
-287.859
-282.32
-269.741
-253.516
-237.001
-218.441
-195.231
-172.359
-149.754
-127.833
-108.11
-88.38
-71.344
-59.139
-51.271
-48.358
-48.316
-49.142
-50.45
-50.954
-49.778
-46.808
-41.808
-35.024
-27.224
-18.908
-10.644
-3.373
2.224
5.826
7.32
6.969
5.263
2.628
-0.445
-3.399
-5.883
-7.689
-8.706
-8.955
-8.459
-7.21
-5.225
-2.506
0.963
5.19
10.162
15.837
22.108
28.821
35.83
43.019
50.313
57.67
65.061
72.466
79.882
87.323
94.8
102.303
109.812
117.294
124.736
132.145
139.54
146.944
154.364
161.785
169.196
176.589
183.958
191.305
198.621
205.881
213.074
220.198
227.256
234.264
241.221
248.111
254.941
261.726
268.514
275.384
282.375
289.485
296.693
303.952
311.2
318.378
325.392
332.115
338.439
344.261
349.499
354.108
358.006
361.089
363.229
364.26
364.069
362.603
359.823
355.729
350.352
343.742
336.009
327.319
317.81
307.597
296.774
285.399
273.561
261.376
248.971
236.495
224.07
211.783
199.716
187.941
176.494
165.397
154.622
144.091
133.758
123.607
113.632
103.858
94.296
84.94
75.793
66.852
58.122
49.613
41.328
33.266
25.442
17.882
10.627
3.743
-2.727
-8.758
-14.333
-19.449
-24.105
-28.299
-32.042
-35.355
-38.256
-40.762
-42.889
-44.649
-46.062
-47.152
-47.949
-48.485
-48.792
-48.896
-48.826
-48.607
-48.264
-47.82
-47.295
-46.703
-46.062
-45.39
-44.705
-44.025
-43.366
-42.743
-42.17
-41.661
-41.227
-40.877
-40.619
-40.457
-40.396
-40.438
-40.584
-40.835
-41.188
-41.64
-42.188
-42.827
-43.55
-44.352
-45.225
-46.161
-47.151
-48.188
-49.263
-50.367
-51.493
-52.632
-53.776
-54.918
-56.052
-57.171
-58.269
-59.341
-60.382
-61.388
-62.357
-63.284
-64.168
-65.009
-65.805
-66.557
-67.266
-67.935
-68.566
-69.161
-69.726
-70.265
-70.782
-71.284
-71.775
-72.262
-72.749
-73.243
-73.75
-74.275
-74.823
-75.399
-76.007
-76.651
-77.335
-78.062
-78.832
-79.648
-80.509
-81.414
-82.362
-83.349
-84.374
-85.43
-86.513
-87.618
-88.739
-89.869
-90.999
-92.123
-93.231
-94.313
-95.361
-96.363
-97.308
-98.185
-98.983
-99.692
-100.301
-100.8
-101.177
-101.424
-101.53
-101.488
-101.289
-100.925
-100.391
-99.68
-98.789
-97.715
-96.458
-95.017
-93.394
-91.592
-89.616
-87.472
-85.168
-82.71
-80.11
-77.377
-74.524
-71.564
-68.513
-65.387
-62.204
-58.987
-55.756
-52.535
-49.348
-46.219
-43.171
-40.23
-37.417
-34.753
-32.257
-29.95
-27.85
-25.982
-24.364
-23.014
-21.947
-21.176
-20.712
-20.565
-20.741
-21.234
-22.042
-23.162
-24.6
-26.371
-28.484
-30.938
-33.725
-36.835
-40.247
-43.942
-47.884
-52.014
-56.273
-60.604
-64.956
-69.296
-73.581
-77.753
-81.736
-85.442
-88.791
-91.734
-94.233
-96.257
-97.792
-98.848
-99.474
-99.753
-99.793
-99.701
-99.576
-99.536
-99.702
-100.19
-101.184
-102.92
-105.525
-108.997
-113.153
-117.594
-121.922
-125.797
-128.745
-130.184
-129.725
-127.297
-123.407
-119.14
-115.578
-113.532
-113.671
-116.525
-122.214
-130.254
-139.056
-145.891
-147.693
-141.535
-124.779
-95.079
-50.798
8.976
83.884
171.833
269.651
372.399
473.669
567.134
647.6
713.467
765.2
801.903
820.471
812.285
768.437
685.37
563.012
411.058
245.448
82.878
-55.677
-155.931
-215.455
-239.088
-240.621
-232.522
-217.32
-194.915
-165.422
-133.124
-108.577
-99.127
-103.926
-114.888
-122.186
-120.348
-110.366
-98.464
-89.424
-84.665
-83.701
-84.135
-84.415
-84.665
-84.95
-85.122
-85.16
-84.851
-84.011
-82.951
-82.129
-81.704
-81.855
-82.82
-84.544
-86.912
-89.778
-92.721
-95.305
-97.298
-98.535
-98.922
-98.486
-97.236
-95.197
-92.476
-89.182
-85.394
-81.174
-76.55
-71.548
-66.227
-60.662
-54.933
-49.103
-43.205
-37.257
-31.264
-25.229
-19.15
-13.01
-6.78
-0.439
6.036
12.653
19.404
26.289
33.307
40.449
47.709
55.067
62.482
69.92
77.344
84.718
92.029
99.26
106.391
113.403
120.276
126.999
133.593
140.086
146.494
152.845
159.164
165.487
171.893
178.441
185.169
192.107
199.229
206.487
213.839
221.223
228.57
235.8
242.78
249.351
255.393
260.786
265.417
269.176
271.883
273.364
273.495
272.173
269.362
265.08
259.336
252.167
243.647
233.855
222.935
211.085
198.437
185.107
171.208
156.832
142.163
127.423
112.776
98.367
84.292
70.595
57.339
44.583
32.338
20.616
9.382
-1.449
-11.892
-21.925
-31.525
-40.641
-49.3
-57.602
-65.599
-73.322
-80.786
-87.971
-94.884
-101.551
-107.961
-114.09
-119.905
-125.341
-130.39
-135.082
-139.448
-143.541
-147.366
-150.872
-154.039
-156.866
-159.353
-161.519
-163.366
-164.876
-166.06
-166.951
-167.582
-167.993
-168.203
-168.209
-168.01
-167.604
-167.006
-166.254
-165.376
-164.392
-163.323
-162.188
-161.009
-159.821
-158.641
-157.472
-156.319
-155.186
-154.081
-153.021
-152.017
-151.076
-150.206
-149.408
-148.685
-148.043
-147.483
-147.005
-146.608
-146.29
-146.049
-145.89
-145.814
-145.82
-145.91
-146.079
-146.327
-146.652
-147.051
-147.518
-148.047
-148.632
-149.265
-149.94
-150.648
-151.383
-152.133
-152.892
-153.648
-154.393
-155.117
-155.809
-156.457
-157.052
-157.581
-158.032
-158.394
-158.654
-158.8
-158.821
-158.703
-158.436
-158.007
-157.404
-156.617
-155.635
-154.446
-153.043
-151.415
-149.554
-147.454
-145.109
-142.515
-139.669
-136.569
-133.214
-129.604
-125.742
-121.629
-117.268
-112.664
-107.822
-102.749
-97.451
-91.939
-86.221
-80.308
-74.211
-67.944
-61.518
-54.949
-48.251
-41.439
-34.529
-27.537
-20.48
-13.375
-6.239
0.913
8.063
15.197
22.298
29.352
36.345
43.264
50.097
56.833
63.46
69.971
76.355
82.605
88.715
94.678
100.488
106.139
111.628
116.95
122.104
127.087
131.896
136.532
140.994
145.283
149.399
153.344
157.119
160.724
164.162
167.434
170.539
173.48
176.254
178.862
181.302
183.568
185.657
187.564
189.286
190.819
192.164
193.317
194.275
195.04
195.614
196.001
196.202
196.213
196.032
195.661
195.109
194.392
193.521
192.507
191.35
190.047
188.6
187.013
185.285
183.404
181.362
179.151
176.787
174.314
171.769
169.175
166.533
163.819
161.028
158.182
155.32
152.496
149.751
147.09
144.553
142.227
140.124
138.188
136.221
133.85
130.746
126.727
121.7
115.661
108.796
101.391
93.963
87.364
82.429
79.823
79.838
82.325
86.723
92.233
97.844
102.202
103.798
101.064
92.991
79.301
60.39
37.263
11.148
-16.394
-43.239
-66.638
-83.982
-92.919
-91.593
-78.957
-53.868
-15.42
36.385
100.79
174.922
253.764
333.074
408.353
477.949
544.17
604.398
654.511
686.463
684.862
642.944
559.201
435.562
285.923
123.614
-38.078
-180.129
-287.968
-353.718
-376.097
-365.024
-339.144
-313.636
-297.071
-293.13
-294.539
-292.356
-283.129
-263.39
-236.19
-208.911
-185.176
-168.004
-157.762
-151.426
-147.599
-145.982
-146.184
-148.099
-150.678
-152.338
-152.36
-150.687
-147.559
-143.391
-138.475
-133.225
-128.485
-125.023
-123.156
-122.898
-123.913
-125.713
-127.99
-130.402
-132.491
-133.966
-134.625
-134.33
-133.094
-130.92
-127.771
-123.68
-118.688
-112.812
-106.117
-98.682
-90.607
-82.067
-73.198
-64.086
-54.804
-45.382
-35.849
-26.249
-16.606
-6.936
2.741
12.407
22.038
31.598
41.076
50.478
59.829
69.175
78.545
87.946
97.381
106.84
116.304
125.758
135.171
144.505
153.726
162.806
171.72
180.448
188.964
197.236
205.23
212.909
220.237
227.181
233.708
239.786
245.388
250.487
255.062
259.096
262.572
265.47
267.774
269.469
270.539
270.975
270.766
269.905
268.386
266.209
263.375
259.89
255.76
250.997
245.614
239.625
233.05
225.909
218.226
210.026
201.336
192.186
182.609
172.637
162.306
151.654
140.718
129.537
118.153
106.606
94.937
83.186
71.395
59.605
47.857
36.189
24.642
13.253
2.059
-8.905
-19.602
-30.003
-40.076
-49.794
-59.129
-68.059
-76.561
-84.616
-92.208
-99.322
-105.945
-112.068
-117.684
-122.788
-127.377
-131.451
-135.012
-138.065
-140.616
-142.674
-144.25
-145.355
-146.006
-146.217
-146.007
-145.394
-144.401
-143.048
-141.359
-139.358
-137.07
-134.522
-131.741
-128.754
-125.589
-122.275
-118.84
-115.313
-111.723
-108.099
-104.47
-100.862
-97.305
-93.825
-90.448
-87.201
-84.109
-81.194
-78.482
-75.993
-73.748
-71.768
-70.071
-68.673
-67.591
-66.839
-66.429
-66.373
-66.68
-67.358
-68.414
-69.853
-71.677
-73.887
-76.482
-79.461
-82.818
-86.548
-90.642
-95.092
-99.886
-105.011
-110.454
-116.199
-122.23
-128.527
-135.073
-141.846
-148.825
-155.987
-163.31
-170.77
-178.342
-186.003
-193.726
-201.487
-209.26
-217.021
-224.744
-232.405
-239.979
-247.442
-254.772
-261.944
-268.939
-275.735
-282.312
-288.654
-294.742
-300.562
-306.098
-311.34
-316.274
-320.892
-325.186
-329.149
-332.777
-336.068
-339.019
-341.634
-343.913
-345.862
-347.486
-348.793
-349.791
-350.49
-350.899
-351.031
-350.898
-350.513
-349.89
-349.045
-347.993
-346.751
-345.335
-343.764
-342.053
-340.222
-338.286
-336.263
-334.171
-332.024
-329.84
-327.634
-325.421
-323.215
-321.029
-318.875
-316.763
-314.701
-312.695
-310.75
-308.866
-307.044
-305.283
-303.581
-301.933
-300.337
-298.788
-297.28
-295.811
-294.376
-292.966
-291.573
-290.182
-288.778
-287.347
-285.871
-284.33
-282.704
-280.969
-279.106
-277.101
-274.937
-272.596
-270.056
-267.285
-264.262
-260.974
-257.411
-253.566
-249.438
-245.027
-240.35
-235.442
-230.334
-225.061
-219.637
-214.055
-208.315
-202.418
-196.366
-190.168
-183.814
-177.267
-170.499
-163.492
-156.221
-148.667
-140.778
-132.461
-123.64
-114.259
-104.299
-93.796
-82.791
-71.32
-59.437
-47.205
-34.728
-22.162
-9.64
2.726
14.832
26.584
37.844
48.417
58.139
66.894
74.62
81.338
87.082
91.868
95.745
98.772
101.046
102.752
104.062
105.121
106.082
107.045
108.11
109.473
111.321
113.713
116.625
119.816
122.886
125.655
128.119
130.276
132.162
133.788
135.104
136.488
138.755
142.365
147.444
153.807
160.891
168.368
176.257
184.077
190.775
195.482
197.354
196.063
192.017
185.304
175.764
163.747
150.098
136.126
123.945
115.501
112.483
117.051
131.246
157.042
196.201
249.334
315.966
393.946
478.683
565.2
648.278
724.365
794.21
856.972
909.226
944.671
949.725
912.982
830.084
700.319
534.557
351.672
170.443
15.165
-94.9
-155.383
-169.809
-153.788
-128.099
-102.8
-81.842
-63.401
-41.021
-14.297
13.6
39.259
58.281
69.125
73.043
71.64
67.112
61.532
56.127
51.943
49.78
50.094
53.001
58.237
65.165
72.939
80.766
87.867
93.756
98.187
101.056
102.488
102.714
102.053
100.96
99.953
99.372
99.408
100.154
101.589
103.726
106.581
110.084
114.121
118.577
123.367
128.456
133.848
139.526
145.428
151.456
157.5
163.479
169.338
175.04
180.531
185.731
190.607
195.18
199.521
203.75
207.943
212.139
216.364
220.627
224.966
229.443
234.107
238.993
244.144
249.598
255.426
261.743
268.594
275.968
283.798
291.952
300.331
308.88
317.538
326.253
334.969
343.609
352.122
360.477
368.619
376.485
383.978
390.957
397.339
403.084
408.19
412.705
416.653
420.033
422.852
425.119
426.837
428.014
428.636
428.665
428.088
426.903
425.13
422.815
419.982
416.632
412.761
408.346
403.377
397.858
391.79
385.169
378.006
370.317
362.134
353.504
344.469
335.066
325.326
315.281
304.963
294.415
283.679
272.797
261.814
250.77
239.711
228.684
217.729
206.886
196.19
185.67
175.356
165.279
155.465
145.94
136.728
127.85
119.329
111.182
103.427
96.076
89.14
82.625
76.538
70.88
65.651
60.849
56.469
52.505
48.948
45.787
43.011
40.607
38.558
36.85
35.464
34.382
33.585
33.053
32.765
32.701
32.84
33.162
33.646
34.272
35.02
35.871
36.806
37.806
38.854
39.931
41.021
42.109
43.18
44.221
45.219
46.164
47.045
47.854
48.582
49.224
49.774
50.226
50.577
50.825
50.968
51.005
50.937
50.766
50.493
50.12
49.651
49.089
48.439
47.705
46.891
46.002
45.044
44.021
42.94
41.806
40.624
39.4
38.14
36.848
35.529
34.188
32.829
31.457
30.076
28.689
27.3
25.911
24.525
23.145
21.773
20.41
19.056
17.714
16.383
15.063
13.754
12.455
11.167
9.888
8.617
7.353
6.095
4.842
3.592
2.343
1.095
-0.154
-1.406
-2.662
-3.924
-5.191
-6.466
-7.749
-9.04
-10.342
-11.653
-12.975
-14.307
-15.651
-17.007
-18.374
-19.752
-21.141
-22.542
-23.953
-25.375
-26.807
-28.249
-29.703
-31.166
-32.641
-34.127
-35.626
-37.137
-38.661
-40.199
-41.753
-43.323
-44.91
-46.517
-48.145
-49.795
-51.469
-53.17
-54.899
-56.658
-58.451
-60.279
-62.143
-64.047
-65.993
-67.982
-70.017
-72.098
-74.228
-76.407
-78.636
-80.916
-83.244
-85.622
-88.045
-90.513
-93.023
-95.569
-98.149
-100.756
-103.386
-106.031
-108.686
-111.344
-113.996
-116.635
-119.252
-121.837
-124.383
-126.879
-129.315
-131.681
-133.966
-136.16
-138.253
-140.235
-142.094
-143.822
-145.409
-146.847
-148.126
-149.24
-150.181
-150.943
-151.522
-151.914
-152.118
-152.132
-151.956
-151.594
-151.05
-150.328
-149.436
-148.382
-147.174
-145.823
-144.341
-142.742
-141.038
-139.244
-137.378
-135.457
-133.505
-131.543
-129.591
-127.673
-125.81
-124.026
-122.345
-120.784
-119.362
-118.094
-116.999
-116.098
-115.407
-114.943
-114.717
-114.742
-115.029
-115.587
-116.421
-117.531
-118.909
-120.552
-122.461
-124.639
-127.094
-129.828
-132.83
-136.088
-139.589
-143.313
-147.235
-151.314
-155.493
-159.719
-163.949
-168.139
-172.25
-176.234
-180.026
-183.571
-186.808
-189.684
-192.165
-194.234
-195.876
-197.108
-197.956
-198.45
-198.666
-198.69
-198.612
-198.551
-198.607
-198.857
-199.43
-200.485
-202.099
-204.267
-206.83
-209.411
-211.652
-213.287
-213.981
-213.356
-211.186
-207.458
-202.584
-197.5
-193.118
-190.047
-188.794
-189.815
-193.242
-198.745
-205.111
-210.106
-211.317
-206.696
-194.217
-171.726
-137.359
-89.833
-30.24
37.785
110.434
184.68
260.389
338.336
415.058
482.342
526.657
535.794
506.71
444.188
359.843
262.908
155.587
39.951
-79.914
-191.726
-278.605
-331.26
-350.338
-347.074
-335.52
-322.947
-309.967
-293.221
-270.842
-245.098
-220.263
-200.387
-187.288
-181.152
-181.327
-186.224
-194.109
-203.01
-210.993
-217.207
-221.297
-222.804
-221.676
-218.185
-212.87
-206.831
-201.206
-196.508
-192.969
-190.763
-189.837
-190.118
-191.461
-193.429
-195.5
-197.326
-198.696
-199.517
-199.799
-199.535
-198.69
-197.286
-195.385
-193.055
-190.352
-187.301
-183.904
-180.167
-176.127
-171.837
-167.362
-162.769
-158.094
-153.354
-148.561
-143.721
-138.838
-133.915
-128.94
-123.886
-118.734
-113.474
-108.1
-102.608
-96.987
-91.221
-85.293
-79.191
-72.912
-66.456
-59.825
-53.023
-46.056
-38.936
-31.68
-24.307
-16.835
-9.283
-1.67
5.984
13.654
21.314
28.939
36.502
43.973
51.322
58.517
65.527
72.32
78.863
85.125
91.074
96.68
101.912
106.742
111.143
115.089
118.556
121.523
123.97
125.881
127.242
128.042
128.273
127.93
127.011
125.518
123.456
120.833
117.66
113.951
109.724
104.998
99.797
94.145
88.07
81.602
74.772
67.614
60.165
52.459
44.535
36.431
28.186
19.84
11.432
3.001
-5.415
-13.778
-22.052
-30.201
-38.192
-45.992
-53.573
-60.905
-67.963
-74.723
-81.166
-87.271
-93.025
-98.413
-103.425
-108.054
-112.295
-116.145
-119.603
-122.671
-125.354
-127.658
-129.591
-131.162
-132.384
-133.269
-133.833
-134.092
-134.063
-133.763
-133.213
-132.431
-131.438
-130.254
-128.898
-127.393
-125.757
-124.01
-122.171
-120.26
-118.293
-116.288
-114.262
-112.228
-110.202
-108.196
-106.221
-104.288
-102.407
-100.585
-98.83
-97.148
-95.543
-94.021
-92.583
-91.233
-89.971
-88.797
-87.711
-86.712
-85.796
-84.962
-84.204
-83.52
-82.904
-82.351
-81.856
-81.413
-81.016
-80.66
-80.337
-80.043
-79.77
-79.513
-79.266
-79.023
-78.779
-78.529
-78.267
-77.99
-77.692
-77.371
-77.022
-76.641
-76.226
-75.772
-75.279
-74.742
-74.16
-73.531
-72.854
-72.127
-71.351
-70.524
-69.648
-68.721
-67.746
-66.723
-65.654
-64.539
-63.381
-62.181
-60.941
-59.665
-58.354
-57.011
-55.639
-54.239
-52.816
-51.371
-49.907
-48.428
-46.935
-45.433
-43.923
-42.41
-40.896
-39.384
-37.879
-36.383
-34.899
-33.431
-31.981
-30.553
-29.149
-27.771
-26.423
-25.105
-23.82
-22.569
-21.355
-20.179
-19.042
-17.945
-16.889
-15.874
-14.9
-13.969
-13.08
-12.233
-11.428
-10.665
-9.944
-9.264
-8.625
-8.025
-7.463
-6.939
-6.449
-5.993
-5.568
-5.173
-4.804
-4.46
-4.138
-3.836
-3.551
-3.28
-3.022
-2.772
-2.528
-2.288
-2.048
-1.806
-1.558
-1.301
-1.033
-0.752
-0.454
-0.137
0.203
0.569
0.963
1.388
1.849
2.348
2.888
3.474
4.106
4.787
5.52
6.307
7.15
8.051
9.011
10.033
11.116
12.263
13.475
14.751
16.091
17.494
18.96
20.487
22.072
23.714
25.409
27.153
28.943
30.775
32.644
34.543
36.467
38.407
40.357
42.306
44.243
46.155
48.031
49.859
51.626
53.32
54.928
56.438
57.841
59.128
60.288
61.311
62.184
62.894
63.433
63.792
63.965
63.945
63.726
63.307
62.693
61.887
60.891
59.699
58.296
56.677
54.844
52.802
50.56
48.136
45.544
42.815
39.994
37.121
34.234
31.362
28.518
25.73
23.039
20.493
18.159
16.083
14.292
12.816
11.672
10.853
10.342
10.091
10.022
10.08
10.202
10.325
10.394
10.328
10.052
9.462
8.397
6.783
4.649
2.14
-0.415
-2.635
-4.212
-4.753
-3.773
-1.036
3.424
9.167
15.211
20.544
24.385
26.034
24.9
20.811
14.191
6.38
-0.295
-3.167
0.279
12.367
35.264
70.643
119.209
180.248
251.5
329.483
410.19
489.296
561.591
621.633
664.842
687.554
688.694
670.126
632.463
576.495
503.206
411.741
308.514
205.253
113.234
45.654
5.715
-13.833
-20.03
-21.885
-23.106
-20.315
-12.88
-1.378
12.073
23.144
30.121
33.333
33.463
31.796
29.43
27.221
26.231
27.111
29.827
33.965
38.938
44.217
49.392
54.039
57.672
59.999
60.985
60.745
59.524
57.553
54.991
52.017
48.832
45.61
42.533
39.763
37.388
35.478
34.086
33.237
32.96
33.268
34.135
35.52
37.378
39.661
42.333
45.362
48.7
52.295
56.088
60.018
64.046
68.152
72.319
76.543
80.821
85.152
89.555
94.051
98.658
103.387
108.246
113.235
118.362
123.635
129.061
134.643
140.381
146.269
152.303
158.474
164.771
171.178
177.679
184.251
190.874
197.529
204.194
210.848
217.469
224.03
230.508
236.877
243.109
249.177
255.051
260.701
266.098
271.214
276.019
280.486
284.587
288.299
291.596
294.456
296.859
298.785
300.217
301.142
301.548
301.424
300.765
299.566
297.827
295.549
292.736
289.397
285.541
281.181
276.333
271.015
265.247
259.053
252.458
245.488
238.175
230.547
222.639
214.485
206.119
197.577
188.895
180.11
171.259
162.377
153.499
144.662
135.899
127.242
118.723
110.373
102.218
94.285
86.598
79.179
72.047
65.22
58.712
52.537
46.703
41.22
36.092
31.322
26.911
22.857
19.157
15.805
12.794
10.114
7.754
5.703
3.947
2.472
1.261
0.3
-0.429
-0.944
-1.262
-1.401
-1.379
-1.214
-0.923
-0.524
-0.033
0.534
1.161
1.834
2.54
3.265
3.998
4.727
5.444
6.139
6.805
7.434
8.021
8.562
9.052
9.49
9.871
10.195
10.461
10.668
10.816
10.905
10.935
10.908
10.825
10.686
10.495
10.251
9.956
9.613
9.222
8.784
8.301
7.774
7.203
6.588
5.931
5.231
4.488
3.702
2.873
1.999
1.08
0.115
-0.898
-1.96
-3.073
-4.237
-5.453
-6.724
-8.048
-9.427
-10.861
-12.349
-13.891
-15.486
-17.133
-18.83
-20.575
-22.365
-24.198
-26.07
-27.978
-29.917
-31.882
-33.87
-35.874
-37.89
-39.912
-41.933
-43.949
-45.951
-47.935
-49.892
-51.818
-53.703
-55.543
-57.329
-59.057
-60.718
-62.308
-63.821
-65.251
-66.594
-67.846
-69.003
-70.062
-71.019
-71.873
-72.622
-73.265
-73.802
-74.232
-74.558
-74.781
-74.903
-74.926
-74.854
-74.691
-74.442
-74.112
-73.705
-73.229
-72.689
-72.094
-71.449
-70.764
-70.046
-69.303
-68.545
-67.78
-67.016
-66.262
-65.526
-64.818
-64.144
-63.514
-62.935
-62.415
-61.961
-61.581
-61.28
-61.065
-60.942
-60.915
-60.99
-61.17
-61.459
-61.86
-62.376
-63.006
-63.753
-64.617
-65.596
-66.69
-67.895
-69.209
-70.628
-72.147
-73.761
-75.464
-77.25
-79.112
-81.044
-83.037
-85.084
-87.177
-89.307
-91.466
-93.645
-95.835
-98.026
-100.21
-102.376
-104.516
-106.62
-108.681
-110.687
-112.632
-114.508
-116.306
-118.021
-119.644
-121.172
-122.598
-123.919
-125.132
-126.235
-127.228
-128.109
-128.88
-129.544
-130.105
-130.565
-130.931
-131.207
-131.4
-131.517
-131.565
-131.554
-131.492
-131.39
-131.259
-131.113
-130.968
-130.837
-130.733
-130.673
-130.671
-130.742
-130.899
-131.151
-131.509
-131.984
-132.587
-133.331
-134.224
-135.274
-136.487
-137.867
-139.422
-141.152
-143.055
-145.122
-147.347
-149.728
-152.268
-154.976
-157.852
-160.888
-164.076
-167.404
-170.859
-174.421
-178.056
-181.712
-185.342
-188.904
-192.366
-195.698
-198.86
-201.796
-204.451
-206.768
-208.708
-210.247
-211.361
-212.029
-212.258
-212.07
-211.51
-210.666
-209.625
-208.466
-207.293
-206.201
-205.276
-204.653
-204.49
-204.867
-205.777
-207.095
-208.546
-209.867
-210.829
-211.112
-210.322
-208.185
-204.644
-200.03
-195.069
-190.496
-186.874
-184.679
-184.358
-186.111
-189.694
-194.085
-197.431
-197.53
-192.26
-179.73
-158.102
-125.845
-82.101
-27.038
37.815
109.687
185.191
260.705
331.837
393.781
441.94
472.065
482.198
473.162
446.092
401.758
338.964
255.481
153.84
43.375
-60.031
-139.755
-187.027
-203.801
-201.512
-192.58
-183.913
-176.575
-166.944
-153.001
-136.465
-120.261
-107.717
-100.228
-97.034
-96.839
-98.188
-99.706
-100.215
-99.088
-96.244
-91.919
-86.649
-80.96
-75.235
-69.963
-65.676
-62.623
-60.849
-60.249
-60.548
-61.533
-63.065
-64.936
-66.943
-68.907
-70.629
-71.993
-72.956
-73.464
-73.489
-73.015
-72.013
-70.486
-68.477
-66.017
-63.144
-59.893
-56.279
-52.336
-48.109
-43.646
-39.008
-34.233
-29.336
-24.332
-19.224
-14.01
-8.69
-3.251
2.336
8.09
14.026
20.155
26.479
33.004
39.743
46.701
53.885
61.296
68.928
76.776
84.832
93.083
101.514
110.103
118.825
127.656
136.572
145.545
154.551
163.558
172.537
181.456
190.284
198.986
207.527
215.872
223.983
231.824
239.36
246.554
253.373
259.783
265.751
271.248
276.244
280.715
284.634
287.981
290.736
292.882
294.407
295.3
295.554
295.164
294.131
292.458
290.152
287.223
283.684
279.551
274.844
269.586
263.802
257.52
250.77
243.586
236.002
228.055
219.783
211.227
202.426
193.422
184.255
174.969
165.603
156.198
146.794
137.429
128.141
118.964
109.934
101.083
92.439
84.032
75.886
68.024
60.465
53.227
46.324
39.768
33.566
27.725
22.248
17.135
12.384
7.991
3.949
0.249
-3.121
-6.173
-8.921
-11.383
-13.575
-15.516
-17.224
-18.719
-20.022
-21.152
-22.131
-22.978
-23.713
-24.355
-24.925
-25.439
-25.915
-26.37
-26.818
-27.274
-27.75
-28.258
-28.807
-29.405
-30.061
-30.778
-31.562
-32.415
-33.338
-34.331
-35.394
-36.523
-37.716
-38.968
-40.273
-41.625
-43.019
-44.445
-45.897
-47.367
-48.847
-50.328
-51.803
-53.263
-54.7
-56.107
-57.476
-58.8
-60.073
-61.289
-62.442
-63.527
-64.541
-65.48
-66.341
-67.122
-67.823
-68.443
-68.981
-69.44
-69.82
-70.123
-70.353
-70.513
-70.606
-70.638
-70.613
-70.536
-70.412
-70.248
-70.048
-69.82
-69.567
-69.297
-69.014
-68.724
-68.432
-68.144
-67.863
-67.594
-67.342
-67.11
-66.901
-66.718
-66.563
-66.437
-66.343
-66.28
-66.249
-66.249
-66.279
-66.339
-66.426
-66.539
-66.674
-66.828
-66.998
-67.18
-67.368
-67.559
-67.747
-67.928
-68.095
-68.244
-68.369
-68.464
-68.524
-68.543
-68.517
-68.439
-68.304
-68.107
-67.842
-67.506
-67.092
-66.597
-66.017
-65.348
-64.587
-63.73
-62.776
-61.72
-60.562
-59.299
-57.931
-56.455
-54.871
-53.179
-51.379
-49.472
-47.458
-45.339
-43.116
-40.792
-38.367
-35.845
-33.228
-30.518
-27.718
-24.831
-21.86
-18.81
-15.683
-12.484
-9.217
-5.886
-2.496
0.949
4.444
7.985
11.566
15.183
18.83
22.502
26.194
29.899
33.613
37.328
41.041
44.744
48.433
52.101
55.745
59.358
62.935
66.47
69.959
73.395
76.774
80.09
83.338
86.511
89.607
92.619
95.544
98.377
101.114
103.753
106.291
108.723
111.049
113.265
115.368
117.359
119.234
120.995
122.64
124.169
125.582
126.88
128.063
129.132
130.087
130.928
131.654
132.268
132.768
133.155
133.428
133.588
133.634
133.566
133.383
133.085
132.668
132.132
131.472
130.686
129.768
128.711
127.508
126.152
124.634
122.945
121.077
119.019
116.764
114.304
111.632
108.739
105.619
102.261
98.654
94.79
90.662
86.263
81.588
76.632
71.39
65.87
60.073
54.003
47.657
41.023
34.094
26.871
19.362
11.576
3.534
-4.743
-13.22
-21.845
-30.565
-39.331
-48.097
-56.837
-65.515
-74.087
-82.492
-90.658
-98.519
-106.038
-113.182
-119.921
-126.255
-132.201
-137.814
-143.193
-148.42
-153.567
-158.712
-163.92
-169.274
-174.872
-180.799
-187.17
-194.144
-201.76
-209.95
-218.528
-227.108
-235.287
-242.728
-248.982
-253.51
-256.016
-256.55
-255.536
-253.867
-252.409
-251.614
-251.862
-253.633
-257.003
-261.338
-265.294
-266.638
-262.938
-252.475
-233.725
-204.927
-164.957
-113.621
-51.72
18.443
93.733
171.148
247.135
317.307
377.323
422.904
450.39
457.462
443.812
411
361.029
296.087
215.805
118.665
7.806
-108.176
-214.175
-294.101
-340.437
-356.133
-353.037
-343.964
-335.63
-328.47
-318.527
-303.398
-284.551
-264.839
-247.603
-234.756
-226.117
-221.158
-219.535
-220.633
-223.637
-228.034
-233.218
-238.369
-243.212
-247.467
-250.499
-252.19
-252.755
-252.278
-251.197
-250.145
-249.313
-248.872
-249.091
-249.918
-251.219
-252.855
-254.467
-255.659
-256.243
-256.107
-255.178
-253.498
-251.087
-247.971
-244.245
-240.01
-235.332
-230.256
-224.811
-219.015
-212.915
-206.581
-200.068
-193.416
-186.65
-179.782
-172.82
-165.769
-158.63
-151.387
-144.03
-136.557
-128.967
-121.268
-113.466
-105.562
-97.556
-89.445
-81.232
-72.917
-64.507
-56.011
-47.439
-38.808
-30.137
-21.446
-12.756
-4.088
4.539
13.104
21.586
29.963
38.21
46.304
54.219
61.927
69.4
76.61
83.529
90.128
96.381
102.261
107.742
112.8
117.411
121.553
125.206
128.351
130.969
133.046
134.57
135.529
135.916
135.725
134.954
133.603
131.675
129.177
126.117
122.507
118.361
113.697
108.533
102.894
96.803
90.287
83.376
76.101
68.496
60.594
52.433
44.047
35.475
26.755
17.924
9.02
0.082
-8.856
-17.755
-26.581
-35.299
-43.877
-52.284
-60.491
-68.471
-76.198
-83.649
-90.805
-97.646
-104.157
-110.325
-116.138
-121.589
-126.672
-131.383
-135.721
-139.689
-143.289
-146.528
-149.413
-151.954
-154.162
-156.049
-157.629
-158.918
-159.929
-160.681
-161.19
-161.474
-161.551
-161.438
-161.154
-160.716
-160.141
-159.446
-158.647
-157.759
-156.796
-155.773
-154.701
-153.592
-152.458
-151.306
-150.146
-148.985
-147.828
-146.68
-145.545
-144.425
-143.322
-142.235
-141.164
-140.108
-139.065
-138.033
-137.009
-135.989
-134.969
-133.946
-132.915
-131.872
-130.813
-129.734
-128.63
-127.499
-126.336
-125.14
-123.907
-122.636
-121.325
-119.974
-118.581
-117.146
-115.671
-114.156
-112.603
-111.013
-109.391
-107.739
-106.06
-104.36
-102.642
-100.913
-99.176
-97.437
-95.702
-93.976
-92.264
-90.572
-88.905
-87.269
-85.667
-84.105
-82.587
-81.117
-79.699
-78.335
-77.027
-75.777
-74.587
-73.458
-72.388
-71.379
-70.429
-69.536
-68.699
-67.916
-67.183
-66.496
-65.852
-65.246
-64.673
-64.127
-63.602
-63.093
-62.593
-62.096
-61.595
-61.085
-60.557
-60.006
-59.425
-58.808
-58.147
-57.438
-56.673
-55.847
-54.954
-53.991
-52.951
-51.832
-50.629
-49.34
-47.96
-46.488
-44.921
-43.259
-41.499
-39.642
-37.686
-35.634
-33.486
-31.243
-28.907
-26.482
-23.97
-21.373
-18.697
-15.943
-13.117
-10.222
-7.264
-4.246
-1.175
1.946
5.111
8.314
11.549
14.813
18.098
21.401
24.716
28.037
31.361
34.682
37.996
41.297
44.583
47.848
51.09
54.306
57.492
60.646
63.768
66.856
69.91
72.928
75.912
78.862
81.779
84.664
87.519
90.346
93.147
95.926
98.685
101.428
104.159
106.884
109.605
112.329
115.06
117.803
120.564
123.347
126.158
129.002
131.886
134.814
137.791
140.822
143.912
147.064
150.283
153.569
156.925
160.352
163.85
167.42
171.058
174.765
178.535
182.365
186.252
190.188
194.168
198.184
202.225
206.282
210.343
214.393
218.418
222.401
226.324
230.171
233.923
237.561
241.066
244.423
247.615
250.624
253.432
256.02
258.368
260.459
262.278
263.81
265.042
265.96
266.552
266.818
266.753
266.352
265.605
264.492
262.998
261.118
258.853
256.207
253.192
249.82
246.116
242.126
237.897
233.475
228.903
224.201
219.402
214.556
209.724
204.985
200.408
196.029
191.874
187.967
184.315
180.909
177.704
174.605
171.511
168.327
164.967
161.351
157.386
152.965
147.943
142.124
135.404
127.798
119.436
110.619
101.677
92.913
84.786
77.894
72.652
69.275
67.57
66.774
66.155
65.068
62.768
58.659
52.393
43.881
33.94
24.486
17.664
16.032
22.266
38.471
66.879
109.534
167.148
239.168
322.899
413.002
504.308
592.802
676.705
755.807
826.525
880.53
905.832
892.61
838.489
749.785
637.785
510.59
375.192
237.612
107.085
-0.152
-73.632
-108.825
-111.297
-95.997
-72.195
-48.743
-29.051
-11.726
-0.484
6.515
11.017
12.907
15.907
18.959
20.748
22.437
23.902
26.704
32.043
39.22
47.602
56.331
64.552
71.809
77.578
81.496
83.529
83.83
82.728
80.513
77.38
73.545
69.238
64.693
60.162
55.852
51.88
48.337
45.298
42.801
40.891
39.587
38.853
38.635
38.88
39.53
40.547
41.896
43.526
45.377
47.382
49.475
51.618
53.796
56.003
58.244
60.527
62.865
65.286
67.829
70.528
73.414
76.516
79.851
83.431
87.273
91.389
95.778
100.43
105.315
110.384
115.602
120.944
126.391
131.939
137.575
143.284
149.057
154.887
160.769
166.706
172.687
178.688
184.709
190.764
196.893
203.171
209.631
216.267
223.051
229.929
236.831
243.688
250.397
256.827
262.865
268.402
273.355
277.674
281.277
284.061
285.899
286.628
286.135
284.368
281.291
276.903
271.236
264.341
256.324
247.354
237.567
227.08
215.99
204.356
192.27
179.852
167.229
154.553
141.948
129.501
117.297
105.41
93.881
82.732
71.941
61.432
51.164
41.121
31.301
21.728
12.413
3.352
-5.455
-14.008
-22.304
-30.335
-38.098
-45.596
-52.815
-59.734
-66.313
-72.491
-78.227
-83.5
-88.296
-92.613
-96.454
-99.819
-102.72
-105.181
-107.219
-108.855
-110.103
-110.976
-111.492
-111.676
-111.554
-111.159
-110.518
-109.657
-108.601
-107.375
-106.001
-104.5
-102.89
-101.184
-99.397
-97.545
-95.644
-93.711
-91.76
-89.805
-87.859
-85.934
-84.04
-82.188
-80.384
-78.634
-76.941
-75.31
-73.742
-72.24
-70.803
-69.432
-68.127
-66.886
-65.708
-64.593
-63.538
-62.54
-61.598
-60.71
-59.871
-59.08
-58.334
-57.631
-56.967
-56.342
-55.753
-55.199
-54.677
-54.187
-53.726
-53.293
-52.888
-52.508
-52.154
-51.825
-51.521
-51.242
-50.99
-50.766
-50.569
-50.403
-50.266
-50.162
-50.089
-50.05
-50.043
-50.069
-50.127
-50.217
-50.338
-50.49
-50.67
-50.877
-51.11
-51.365
-51.642
-51.937
-52.247
-52.57
-52.901
-53.238
-53.577
-53.914
-54.245
-54.567
-54.876
-55.167
-55.437
-55.681
-55.896
-56.078
-56.222
-56.326
-56.386
-56.4
-56.366
-56.281
-56.145
-55.957
-55.717
-55.426
-55.083
-54.69
-54.249
-53.763
-53.233
-52.663
-52.056
-51.417
-50.749
-50.056
-49.344
-48.617
-47.881
-47.141
-46.402
-45.67
-44.95
-44.248
-43.569
-42.919
-42.303
-41.727
-41.195
-40.711
-40.28
-39.906
-39.591
-39.338
-39.148
-39.023
-38.964
-38.97
-39.041
-39.175
-39.37
-39.624
-39.934
-40.296
-40.706
-41.16
-41.652
-42.176
-42.727
-43.299
-43.883
-44.473
-45.061
-45.64
-46.202
-46.741
-47.247
-47.714
-48.133
-48.497
-48.8
-49.034
-49.193
-49.27
-49.26
-49.16
-48.965
-48.672
-48.28
-47.787
-47.193
-46.499
-45.706
-44.818
-43.837
-42.768
-41.617
-40.39
-39.097
-37.744
-36.343
-34.905
-33.445
-31.978
-30.519
-29.083
-27.688
-26.349
-25.084
-23.91
-22.839
-21.885
-21.062
-20.386
-19.875
-19.543
-19.403
-19.466
-19.744
-20.245
-20.981
-21.952
-23.155
-24.588
-26.25
-28.148
-30.299
-32.709
-35.376
-38.294
-41.453
-44.837
-48.429
-52.198
-56.092
-60.067
-64.077
-68.092
-72.096
-76.055
-79.925
-83.651
-87.156
-90.389
-93.319
-95.908
-98.138
-100.01
-101.54
-102.78
-103.817
-104.722
-105.571
-106.439
-107.391
-108.52
-109.91
-111.682
-114.027
-117.036
-120.698
-124.871
-129.207
-133.313
-136.866
-139.427
-140.446
-139.589
-136.753
-132.334
-127.329
-122.769
-119.524
-118.34
-119.829
-124.33
-131.707
-140.765
-149.22
-154.314
-153.18
-143.277
-122.278
-88.055
-39.191
24.377
101.065
187.691
280
373.382
462.401
541.001
603.083
642.752
656.651
644.87
608.74
550.724
470.799
365.252
235.024
86.294
-65.381
-194.911
-285.27
-330.002
-335.802
-322.971
-305.885
-290.658
-277.374
-259.005
-233.153
-202.541
-170.616
-142.168
-119.838
-104.115
-94.825
-90.863
-91.021
-94.243
-99.595
-106.467
-113.891
-120.356
-124.939
-127.312
-127.503
-126.011
-123.248
-119.421
-115.1
-111.227
-108.384
-106.821
-106.551
-107.23
-108.554
-110.335
-112.248
-113.883
-114.983
-115.413
-115.134
-114.25
-112.841
-110.94
-108.613
-105.923
-102.912
-99.616
-96.062
-92.262
-88.254
-84.085
-79.788
-75.384
-70.883
-66.28
-61.569
-56.737
-51.762
-46.618
-41.287
-35.759
-30.028
-24.09
-17.938
-11.56
-4.947
1.907
9.008
16.357
23.953
31.789
39.854
48.132
56.604
65.248
74.042
82.964
91.991
101.099
110.26
119.446
128.627
137.773
146.85
155.825
164.661
173.322
181.775
189.983
197.912
205.528
212.797
219.687
226.168
232.211
237.789
242.875
247.446
251.482
254.964
257.877
260.207
261.945
263.084
263.62
263.554
262.887
261.627
259.782
257.365
254.391
250.878
246.848
242.323
237.329
231.894
226.049
219.825
213.257
206.378
199.226
191.837
184.249
176.5
168.627
160.667
152.659
144.637
136.638
128.696
120.844
113.113
105.534
98.134
90.939
83.973
77.257
70.812
64.653
58.795
53.25
48.028
43.136
38.581
34.364
30.487
26.949
23.748
20.878
18.333
16.105
14.186
12.563
11.225
10.16
9.353
8.79
8.456
8.335
8.411
8.668
9.09
9.661
10.365
11.187
12.111
13.122
14.207
15.353
16.547
17.777
19.032
20.303
21.579
22.852
24.115
25.359
26.579
27.769
28.924
30.039
31.11
32.135
33.111
34.035
34.906
35.724
36.487
37.196
37.851
38.452
39.002
39.501
39.95
40.352
40.709
41.023
41.294
41.526
41.721
41.879
42.003
42.095
42.156
42.189
42.194
42.173
42.127
42.059
41.969
41.859
41.73
41.584
41.421
41.244
41.052
40.847
40.631
40.402
40.162
39.911
39.647
39.372
39.083
38.779
38.46
38.124
37.769
37.393
36.995
36.572
36.123
35.645
35.135
34.591
34.012
33.393
32.732
32.027
31.274
30.471
29.616
28.704
27.735
26.703
25.608
24.445
23.213
21.909
20.53
19.076
17.544
15.935
14.247
12.481
10.637
8.716
6.719
4.647
2.504
0.29
-1.992
-4.339
-6.747
-9.213
-11.733
-14.301
-16.914
-19.567
-22.253
-24.967
-27.704
-30.458
-33.223
-35.991
-38.758
-41.515
-44.256
-46.974
-49.661
-52.311
-54.916
-57.47
-59.966
-62.399
-64.763
-67.054
-69.266
-71.395
-73.437
-75.387
-77.244
-79.003
-80.662
-82.218
-83.67
-85.019
-86.264
-87.407
-88.447
-89.388
-90.234
-90.987
-91.652
-92.235
-92.742
-93.179
-93.557
-93.883
-94.168
-94.425
-94.664
-94.903
-95.155
-95.437
-95.766
-96.158
-96.628
-97.196
-97.876
-98.683
-99.632
-100.736
-102.01
-103.47
-105.133
-107.013
-109.123
-111.474
-114.078
-116.944
-120.081
-123.487
-127.161
-131.103
-135.317
-139.815
-144.609
-149.696
-155.074
-160.737
-166.669
-172.853
-179.26
-185.839
-192.543
-199.328
-206.152
-212.99
-219.814
-226.58
-233.236
-239.719
-245.967
-251.945
-257.62
-262.953
-267.941
-272.599
-276.977
-281.172
-285.265
-289.319
-293.409
-297.606
-302.001
-306.706
-311.808
-317.425
-323.718
-330.752
-338.509
-346.844
-355.369
-363.617
-371.157
-377.44
-381.872
-384.101
-383.999
-381.912
-378.802
-375.76
-373.774
-373.782
-376.569
-382.545
-391.591
-402.512
-412.925
-419.823
-420.056
-410.721
-389.013
-352.416
-299.164
-228.716
-143.822
-50.367
45.76
138.051
224.15
306.875
383.648
450.099
496.066
501.619
457.192
360.096
213.546
38.228
-145.994
-320.117
-461.127
-559.689
-615.054
-631.286
-620.966
-593.367
-552.746
-505.236
-458.77
-421.407
-399.841
-393.285
-392.337
-388.507
-377.933
-362.091
-347.985
-340.453
-339.687
-343.799
-349.16
-352.987
-354.453
-353.427
-350.089
-344.751
-337.853
-329.838
-321.315
-313.19
-306.075
-300.268
-295.944
-292.947
-290.945
-289.644
-288.607
-287.337
-285.545
-283.064
-279.815
-275.853
-271.218
-265.939
-260.097
-253.773
-247.018
-239.867
-232.333
-224.429
-216.2
-207.715
-199.05
-190.264
-181.388
-172.44
-163.429
-154.358
-145.227
-136.023
-126.72
-117.307
-107.778
-98.132
-88.373
-78.5
-68.502
-58.373
-48.107
-37.701
-27.158
-16.485
-5.692
5.207
16.192
27.24
38.324
49.42
60.502
71.544
82.521
93.403
104.161
114.764
125.181
135.379
145.322
154.977
164.309
173.283
181.866
190.025
197.727
204.942
211.64
217.794
223.378
228.366
232.739
236.474
239.557
241.973
243.709
244.759
245.117
244.781
243.752
242.036
239.642
236.58
232.867
228.52
223.561
218.015
211.908
205.272
198.139
190.542
182.52
174.111
165.355
156.295
146.973
137.432
127.717
117.872
107.94
97.965
87.99
78.058
68.21
58.485
48.922
39.559
30.428
21.564
12.997
4.754
-3.138
-10.658
-17.785
-24.502
-30.795
-36.652
-42.064
-47.026
-51.535
-55.589
-59.192
-62.348
-65.063
-67.346
-69.21
-70.666
-71.729
-72.415
-72.743
-72.729
-72.395
-71.761
-70.848
-69.679
-68.276
-66.661
-64.858
-62.888
-60.775
-58.541
-56.208
-53.795
-51.325
-48.816
-46.287
-43.756
-41.24
-38.753
-36.309
-33.923
-31.605
-29.365
-27.213
-25.157
-23.203
-21.356
-19.621
-18
-16.497
-15.111
-13.844
-12.693
-11.659
-10.737
-9.926
-9.221
-8.618
-8.111
-7.697
-7.369
-7.12
-6.946
-6.839
-6.793
-6.801
-6.858
-6.956
-7.089
-7.25
-7.435
-7.637
-7.852
-8.073
-8.296
-8.518
-8.734
-8.941
-9.137
-9.318
-9.482
-9.629
-9.756
-9.864
-9.95
-10.016
-10.062
-10.087
-10.093
-10.081
-10.051
-10.005
-9.944
-9.87
-9.784
-9.688
-9.583
-9.469
-9.349
-9.223
-9.091
-8.954
-8.813
-8.666
-8.515
-8.358
-8.194
-8.024
-7.844
-7.653
-7.449
-7.229
-6.991
-6.729
-6.441
-6.122
-5.768
-5.375
-4.938
-4.453
-3.915
-3.319
-2.66
-1.935
-1.137
-0.263
0.69
1.728
2.852
4.065
5.368
6.763
8.25
9.827
11.496
13.252
15.094
17.018
19.022
21.098
23.242
25.446
27.701
30
32.33
34.679
37.032
39.375
41.693
43.97
46.191
48.338
50.397
52.353
54.195
55.909
57.48
58.893
60.134
61.191
62.052
62.707
63.149
63.369
63.364
63.137
62.692
62.03
61.146
60.027
58.664
57.055
55.204
53.118
50.813
48.303
45.618
42.809
39.923
37.008
34.103
31.231
28.424
25.727
23.195
20.901
18.905
17.251
15.975
15.102
14.638
14.566
14.835
15.358
16.038
16.778
17.483
18.061
18.418
18.466
18.075
17.065
15.319
12.801
9.62
6.088
2.562
-0.618
-3.01
-4.094
-3.439
-0.788
3.602
8.885
14.074
18.224
20.561
20.509
17.625
11.845
4.169
-3.254
-7.661
-6.138
3.952
25.035
59.522
109.653
175.079
252.32
337.247
425.065
515.035
610.546
709.523
805.263
883.191
922.672
914.919
860.634
770.213
660.798
537.81
404.323
263.423
121.044
-1.635
-87.154
-125.635
-117.318
-81.87
-38.79
-4.03
11.934
13.227
7.445
3.15
7.722
21.15
39.75
57.997
71.826
80.492
84.959
87.74
90.2
92.346
94.419
96.192
97.49
98.8
100.504
102.563
105.014
107.64
109.836
111.371
112.217
112.242
111.414
109.824
107.582
105.005
102.579
100.577
99.121
98.29
98.075
98.49
99.548
101.181
103.278
105.755
108.56
111.67
115.074
118.732
122.577
126.537
130.562
134.63
138.731
142.867
147.041
151.257
155.538
159.913
164.4
169.015
173.768
178.666
183.727
188.972
194.405
200.031
205.841
211.811
217.918
224.138
230.426
236.75
243.085
249.413
255.741
262.081
268.425
274.756
281.039
287.234
293.331
299.321
305.198
310.976
316.666
322.28
327.866
333.445
338.994
344.467
349.762
354.76
359.375
363.543
367.215
370.357
372.911
374.817
376.031
376.487
376.12
374.853
372.567
369.177
364.665
359.052
352.428
344.923
336.63
327.629
317.999
307.8
297.105
285.991
274.507
262.717
250.703
238.563
226.436
214.446
202.663
191.127
179.834
168.744
157.847
147.141
136.614
126.275
116.136
106.21
96.533
87.146
78.067
69.3
60.828
52.63
44.711
37.087
29.785
22.848
16.303
10.174
4.487
-0.742
-5.508
-9.812
-13.672
-17.114
-20.156
-22.813
-25.098
-27.023
-28.604
-29.865
-30.827
-31.519
-31.966
-32.197
-32.242
-32.129
-31.885
-31.534
-31.094
-30.584
-30.02
-29.421
-28.803
-28.183
-27.577
-26.998
-26.462
-25.983
-25.57
-25.235
-24.986
-24.827
-24.764
-24.802
-24.942
-25.186
-25.534
-25.985
-26.537
-27.19
-27.938
-28.778
-29.706
-30.716
-31.803
-32.962
-34.185
-35.468
-36.804
-38.186
-39.61
-41.07
-42.561
-44.077
-45.614
-47.168
-48.735
-50.311
-51.894
-53.48
-55.066
-56.65
-58.231
-59.808
-61.379
-62.943
-64.5
-66.049
-67.589
-69.121
-70.643
-72.155
-73.656
-75.146
-76.624
-78.089
-79.54
-80.974
-82.391
-83.787
-85.159
-86.505
-87.82
-89.1
-90.341
-91.537
-92.684
-93.776
-94.808
-95.773
-96.665
-97.478
-98.205
-98.839
-99.374
-99.802
-100.119
-100.317
-100.393
-100.342
-100.16
-99.843
-99.389
-98.797
-98.065
-97.194
-96.184
-95.038
-93.759
-92.352
-90.823
-89.179
-87.429
-85.585
-83.659
-81.666
-79.622
-77.542
-75.443
-73.343
-71.259
-69.21
-67.212
-65.28
-63.434
-61.69
-60.068
-58.59
-57.274
-56.138
-55.198
-54.47
-53.97
-53.71
-53.694
-53.928
-54.419
-55.175
-56.217
-57.558
-59.203
-61.152
-63.401
-65.936
-68.74
-71.784
-75.018
-78.397
-81.876
-85.416
-88.996
-92.59
-96.156
-99.648
-103.007
-106.181
-109.144
-111.871
-114.336
-116.549
-118.533
-120.35
-122.103
-123.875
-125.737
-127.767
-130.03
-132.61
-135.604
-139.077
-143.123
-147.87
-153.342
-159.491
-166.161
-172.986
-179.571
-185.561
-190.481
-193.836
-195.342
-194.912
-192.859
-189.951
-186.968
-184.552
-183.304
-183.74
-186.066
-189.994
-194.421
-197.468
-196.956
-190.739
-176.841
-153.31
-118.605
-71.998
-13.919
53.933
128.82
207.218
285.091
357.773
420.236
467.59
495.946
502.402
486.223
449.493
393.453
319.761
229.927
123.4
6.472
-109.174
-211.807
-287.855
-333.905
-357.361
-365.292
-366.502
-364.35
-354.978
-338.046
-314.67
-287.183
-260.306
-236.331
-215.857
-199.846
-188.631
-181.815
-178.776
-178.511
-180.097
-183.107
-187.003
-190.67
-192.95
-193.254
-191.494
-187.988
-183.184
-177.346
-170.851
-164.426
-158.743
-154.169
-150.809
-148.471
-146.817
-145.58
-144.468
-143.111
-141.252
-138.764
-135.587
-131.78
-127.441
-122.632
-117.428
-111.909
-106.108
-100.047
-93.749
-87.231
-80.533
-73.716
-66.822
-59.884
-52.921
-45.936
-38.924
-31.87
-24.75
-17.541
-10.228
-2.807
4.717
12.328
20.004
27.713
35.423
43.116
50.793
58.466
66.143
73.824
81.507
89.187
96.876
104.59
112.342
120.132
127.97
135.885
143.931
152.192
160.753
169.647
178.87
188.388
198.146
208.065
218.082
228.107
237.953
247.461
256.512
264.992
272.852
280.041
286.372
291.607
295.759
298.918
300.937
301.826
301.618
299.987
298.062
296.99
295.548
293.461
288.214
276.762
262.635
248.224
237.092
234.078
235.091
236.67
236.442
230.425
221.493
212.485
203.903
197.352
191.626
185.272
178.493
171.083
163.101
154.824
146.083
136.774
127.039
116.934
106.467
95.711
84.754
73.76
63.006
52.758
43.226
34.593
27.008
20.598
15.487
11.705
9.198
7.834
7.471
8.086
9.645
12.008
14.863
17.661
19.917
21.357
21.745
20.818
18.346
14.157
8.488
2.123
-4.383
-10.939
-17.839
-25.878
-35.841
-48.464
-64.991
-87.089
-116.015
-152.33
-195.626
-244.386
-296.983
-351.632
-405.953
-457.472
-503.975
-543.82
-576.466
-602.449
-622.528
-637.891
-650.294
-661.361
-672.673
-685.526
-700.466
-717.49
-736.417
-756.685
-777.415
-797.961
-817.713
-836.217
-853.399
-869.319
-884.136
-898.169
-911.763
-925.093
-938.235
-951.17
-963.74
-975.79
-987.136
-997.569
-1006.938
-1015.147
-1022.15
-1027.918
-1032.441
-1035.716
-1037.744
-1038.546
-1038.163
-1036.632
-1033.991
-1030.307
-1025.651
-1020.086
-1013.689
-1006.5
-998.494
-989.639
-979.9
-969.265
-957.754
-945.385
-932.118
-917.859
-902.56
-886.295
-869.259
-851.627
-833.415
-814.434
-794.479
-773.587
-751.808
-728.977
-704.624
-678.145
-649.341
-618.697
-587.031
-554.885
-522.678
-490.941
-460.525
-432.582
-407.749
-385.719
-365.602
-346.67
-328.433
-310.519
-292.423
-273.337
-252.799
-231.053
-208.808
-186.703
-165.156
-144.37
-124.496
-105.869
-88.694
-72.87
-58.161
-44.377
-31.258
-18.633
-6.701
4.527
15.123
24.685
34.282
44.97
55.241
64.681
70.561
69.579
65.474
60.742
59.088
65.588
75.787
85.917
93.415
94.054
90.986
87.392
84.005
82.738
82.495
81.9
81.281
80.532
79.838
79.536
79.513
79.754
80.369
81.352
82.552
83.657
84.358
84.49
83.985
82.866
81.345
79.733
78.552
78.603
80.64
85.259
92.721
102.863
115.07
128.452
141.918
154.156
163.801
169.402
169.97
165.112
155.054
140.728
123.279
104.079
84.97
68.434
56.976
53.046
58.811
75.645
104.874
147.608
204.14
273.642
354.244
442.954
536.015
629.561
718.709
797.987
862.062
905.883
926.901
925.461
902.287
858.842
794.328
704.795
592.001
463.256
333.604
225.845
153.856
120.628
118.225
128.388
139.124
146.473
151.53
160.087
173.469
188.763
203.061
213.333
219.011
221.553
222.258
222.586
223.896
227.123
232.734
240.549
249.969
260.278
270.869
281.26
290.956
299.449
306.474
312.017
316.224
319.362
321.669
323.299
324.431
325.262
325.968
326.746
327.78
329.17
330.993
333.307
336.133
339.499
343.418
347.855
352.755
358.065
363.729
369.709
375.972
382.466
389.132
395.9
402.696
409.477
416.215
422.892
429.501
436.039
442.507
448.929
455.333
461.743
468.175
474.638
481.137
487.684
494.29
500.966
507.719
514.552
521.464
528.452
535.512
542.634
549.806
557.011
564.229
571.441
578.629
585.772
592.851
599.845
606.729
613.482
620.078
626.494
632.701
638.672
644.378
649.792
654.885
659.631
664.002
667.972
671.519
674.62
677.253
679.401
681.047
682.176
682.776
682.84
682.361
681.334
679.759
677.638
674.977
671.783
668.068
663.844
659.13
653.944
648.307
642.244
635.781
628.945
621.767
614.277
606.509
598.497
590.276
581.883
573.354
564.725
556.032
547.311
538.596
529.921
521.316
512.813
504.441
496.225
488.19
480.359
472.75
465.381
458.266
451.417
444.842
438.547
432.535
426.806
421.356
416.181
411.274
406.623
402.216
398.04
394.077
390.309
386.717
383.28
379.974
376.778
373.667
370.617
367.604
364.604
361.593
358.548
355.446
352.264
348.982
345.579
342.037
338.337
334.464
330.403
326.141
321.666
316.971
312.046
306.887
301.49
295.854
289.977
283.861
277.51
270.928
264.121
257.098
249.868
242.44
234.826
227.037
219.086
210.987
202.752
194.396
185.932
177.374
168.737
160.034
151.28
142.489
133.675
124.852
116.034
107.233
98.463
89.735
81.062
72.456
63.927
55.485
47.141
38.905
30.784
22.789
14.928
7.207
-0.365
-7.782
-15.039
-22.129
-29.048
-35.789
-42.349
-48.721
-54.902
-60.887
-66.671
-72.25
-77.62
-82.779
-87.724
-92.454
-96.966
-101.261
-105.339
-109.2
-112.847
-116.28
-119.503
-122.52
-125.338
-127.961
-130.398
-132.659
-134.755
-136.7
-138.509
-140.194
-141.771
-143.257
-144.671
-146.032
-147.36
-148.672
-149.986
-151.322
-152.698
-154.136
-155.657
-157.273
-158.999
-160.848
-162.836
-164.981
-167.298
-169.785
-172.444
-175.273
-178.274
-181.465
-184.856
-188.443
-192.225
-196.193
-200.34
-204.668
-209.162
-213.787
-218.497
-223.239
-227.971
-232.682
-237.364
-242.013
-246.605
-251.074
-255.357
-259.406
-263.171
-266.648
-269.814
-272.603
-275.055
-277.297
-279.532
-282.123
-285.374
-289.339
-294.037
-299.436
-305.313
-311.528
-317.752
-323.137
-326.883
-328.528
-327.814
-324.949
-320.511
-314.73
-308.051
-301.649
-296.896
-295.172
-297.575
-304.217
-314.449
-327.879
-343.891
-361.162
-377.65
-390.365
-396.142
-392.695
-378.443
-351.575
-310.422
-253.71
-182.387
-100.354
-11.785
80.105
175.507
275.63
376.822
469.707
538.611
569.443
558.335
509.788
435.99
346.18
239.476
115.437
-24.001
-166.728
-288.446
-372.692
-414.588
-422.484
-416.483
-409.421
-404.435
-399.157
-387.375
-368.386
-346.601
-326.347
-311.305
-302.723
-300.086
-302.439
-308.172
-315.253
-321.433
-325.316
-326.641
-325.387
-321.57
-315.435
-307.377
-298.297
-289.602
-282.145
-276.182
-271.843
-269.089
-267.842
-268.058
-269.418
-271.362
-273.493
-275.542
-277.3
-278.663
-279.521
-279.754
-279.328
-278.265
-276.582
-274.307
-271.464
-268.063
-264.137
-259.725
-254.867
-249.612
-244.015
-238.135
-232.035
-225.774
-219.39
-212.911
-206.35
-199.718
-193.015
-186.23
-179.347
-172.348
-165.218
-157.949
-150.535
-142.968
-135.243
-127.354
-119.301
-111.086
-102.717
-94.202
-85.555
-76.793
-67.938
-59.013
-50.046
-41.068
-32.107
-23.194
-14.36
-5.637
2.942
11.343
19.533
27.478
35.143
42.493
49.492
56.105
62.298
68.037
73.292
78.031
82.226
85.852
88.886
91.306
93.095
94.238
94.725
94.546
93.697
92.178
89.99
87.14
83.639
79.499
74.738
69.377
63.44
56.954
49.95
42.46
34.52
26.168
17.443
8.389
-0.953
-10.537
-20.317
-30.247
-40.277
-50.362
-60.454
-70.505
-80.47
-90.305
-99.965
-109.41
-118.601
-127.5
-136.074
-144.289
-152.116
-159.53
-166.507
-173.027
-179.073
-184.631
-189.692
-194.248
-198.295
-201.833
-204.865
-207.395
-209.431
-210.984
-212.066
-212.693
-212.882
-212.652
-212.023
-211.02
-209.665
-207.983
-206.002
-203.748
-201.248
-198.529
-195.619
-192.546
-189.336
-186.015
-182.609
-179.143
-175.641
-172.126
-168.618
-165.138
-161.705
-158.336
-155.045
-151.847
-148.755
-145.777
-142.924
-140.203
-137.621
-135.181
-132.888
-130.743
-128.748
-126.902
-125.204
-123.651
-122.24
-120.966
-119.824
-118.808
-117.911
-117.126
-116.445
-115.86
-115.364
-114.947
-114.602
-114.32
-114.093
-113.913
-113.771
-113.661
-113.574
-113.505
-113.447
-113.394
-113.341
-113.283
-113.215
-113.133
-113.033
-112.912
-112.765
-112.59
-112.383
-112.141
-111.863
-111.545
-111.186
-110.783
-110.334
-109.839
-109.296
-108.704
-108.062
-107.368
-106.623
-105.826
-104.976
-104.071
-103.111
-102.094
-101.019
-99.887
-98.694
-97.441
-96.126
-94.746
-93.301
-91.79
-90.211
-88.565
-86.848
-85.062
-83.207
-81.284
-79.295
-77.24
-75.123
-72.947
-70.715
-68.432
-66.103
-63.733
-61.327
-58.891
-56.434
-53.962
-51.484
-49.009
-46.546
-44.11
-41.713
-39.37
-37.094
-34.9
-32.803
-30.817
-28.958
-27.235
-25.659
-24.242
-22.996
-21.935
-21.072
-20.416
-19.975
-19.756
-19.766
-20.012
-20.495
-21.209
-22.149
-23.313
-24.705
-26.342
-28.228
-30.362
-32.737
-35.341
-38.158
-41.17
-44.343
-47.625
-50.961
-54.301
-57.603
-60.842
-63.977
-66.953
-69.705
-72.15
-74.233
-75.922
-77.184
-78.002
-78.383
-78.349
-77.963
-77.328
-76.537
-75.691
-74.892
-74.231
-73.827
-73.788
-74.255
-75.435
-77.406
-80.132
-83.452
-86.995
-90.365
-93.259
-95.229
-95.711
-94.397
-91.196
-86.476
-81.2
-76.275
-72.36
-70.053
-69.831
-71.878
-75.971
-80.907
-84.415
-83.864
-76.725
-60.869
-34.228
5.119
58.477
126.23
205.935
292.574
381.538
467.823
549.404
627.975
700.258
761.625
803.573
810.561
776.173
698.165
578.291
432.974
276.944
127.154
5.747
-79.387
-126.764
-142.13
-142.769
-138.285
-131.744
-123.302
-107.25
-82.79
-54.106
-25.41
-1.79
14.124
22.256
23.15
18.182
9.228
-1.737
-12.88
-22.699
-30.235
-34.846
-36.219
-34.483
-30.217
-24.37
-17.953
-11.929
-6.914
-3.248
-1.114
-0.465
-1.113
-2.749
-4.943
-7.186
-9.109
-10.506
-11.271
-11.406
-10.926
-9.818
-8.115
-5.893
-3.217
-0.131
3.341
7.201
11.439
16.003
20.835
25.862
31.017
36.262
41.573
46.928
52.316
57.726
63.155
68.617
74.128
79.694
85.318
91.005
96.765
102.619
108.584
114.66
120.839
127.113
133.47
139.902
146.386
152.893
159.399
165.893
172.384
178.884
185.39
191.883
198.324
204.674
210.914
217.042
223.064
228.969
234.743
240.381
245.904
251.341
256.692
261.905
266.88
271.522
275.766
279.575
282.931
285.809
288.164
289.94
291.093
291.599
291.427
290.531
288.827
286.224
282.684
278.241
272.99
267.022
260.398
253.156
245.329
236.97
228.142
218.905
209.3
199.356
189.12
178.667
168.107
157.558
147.093
136.735
126.462
116.262
106.149
96.144
86.27
76.531
66.934
57.502
48.279
39.313
30.631
22.242
14.135
6.294
-1.275
-8.547
-15.487
-22.066
-28.267
-34.078
-39.484
-44.469
-49.021
-53.148
-56.868
-60.205
-63.174
-65.788
-68.054
-69.982
-71.593
-72.906
-73.944
-74.729
-75.282
-75.626
-75.788
-75.792
-75.664
-75.421
-75.08
-74.657
-74.168
-73.631
-73.061
-72.473
-71.88
-71.295
-70.732
-70.202
-69.717
-69.283
-68.908
-68.598
-68.358
-68.19
-68.098
-68.083
-68.144
-68.282
-68.494
-68.779
-69.134
-69.555
-70.038
-70.579
-71.174
-71.817
-72.504
-73.229
-73.989
-74.777
-75.59
-76.423
-77.271
-78.13
-78.995
-79.864
-80.733
-81.597
-82.454
-83.301
-84.134
-84.952
-85.75
-86.529
-87.285
-88.016
-88.722
-89.402
-90.054
-90.678
-91.274
-91.842
-92.381
-92.891
-93.372
-93.825
-94.25
-94.646
-95.015
-95.355
-95.668
-95.954
-96.213
-96.445
-96.652
-96.833
-96.989
-97.122
-97.231
-97.318
-97.385
-97.432
-97.461
-97.474
-97.474
-97.462
-97.441
-97.415
-97.384
-97.353
-97.324
-97.301
-97.285
-97.28
-97.29
-97.318
-97.367
-97.44
-97.542
-97.675
-97.843
-98.049
-98.295
-98.584
-98.918
-99.3
-99.731
-100.212
-100.745
-101.329
-101.965
-102.653
-103.389
-104.173
-105.002
-105.872
-106.778
-107.717
-108.684
-109.671
-110.675
-111.688
-112.705
-113.717
-114.717
-115.698
-116.651
-117.567
-118.437
-119.252
-120.002
-120.678
-121.271
-121.772
-122.172
-122.464
-122.638
-122.687
-122.604
-122.383
-122.016
-121.498
-120.825
-119.994
-119.003
-117.852
-116.54
-115.07
-113.444
-111.666
-109.741
-107.674
-105.47
-103.138
-100.685
-98.122
-95.458
-92.706
-89.879
-86.995
-84.071
-81.125
-78.177
-75.245
-72.348
-69.508
-66.748
-64.085
-61.538
-59.122
-56.856
-54.76
-52.852
-51.149
-49.662
-48.398
-47.368
-46.579
-46.043
-45.764
-45.737
-45.955
-46.412
-47.112
-48.069
-49.291
-50.773
-52.507
-54.481
-56.682
-59.1
-61.711
-64.466
-67.311
-70.189
-73.047
-75.855
-78.588
-81.214
-83.697
-85.97
-87.955
-89.592
-90.845
-91.691
-92.151
-92.222
-91.873
-91.194
-90.393
-89.779
-89.696
-90.314
-91.558
-93.38
-95.943
-99.298
-103.246
-107.168
-110.106
-111.471
-111.288
-109.742
-106.712
-102.098
-96.098
-89.682
-84.678
-82.499
-83.699
-88.323
-96.359
-107.713
-121.902
-137.28
-150.783
-159.297
-159.952
-150.335
-128.556
-92.523
-40.578
27.496
110.655
205.526
306.129
407.177
503.496
592.607
676.205
751.554
812.369
848.253
844.763
796.389
706.462
582.609
436.466
278.291
117.181
-31.845
-149.833
-224.61
-252.614
-243.255
-217.179
-188.692
-164.543
-144.835
-122.807
-96.952
-70.342
-46.752
-31.318
-25.62
-27.981
-36.499
-48.578
-61.666
-74.127
-84.295
-90.786
-93.306
-92.035
-87.449
-80.531
-72.337
-63.83
-56.126
-50.046
-45.854
-43.615
-43.161
-44.123
-46.19
-48.974
-51.944
-54.717
-57.045
-58.774
-59.9
-60.437
-60.354
-59.663
-58.409
-56.618
-54.339
-51.602
-48.405
-44.77
-40.73
-36.334
-31.65
-26.744
-21.674
-16.482
-11.191
-5.818
-0.377
5.13
10.709
16.371
22.137
28.022
34.033
40.177
46.461
52.894
59.488
66.25
73.184
80.288
87.558
94.985
102.558
110.264
118.083
125.994
133.973
141.993
150.032
158.063
166.058
173.989
181.826
189.539
197.096
204.467
211.617
218.513
225.122
231.41
237.344
242.893
248.024
252.708
256.917
260.625
263.808
266.443
268.512
269.997
270.884
271.163
270.825
269.865
268.281
266.074
263.249
259.815
255.784
251.169
245.991
240.269
234.028
227.294
220.099
212.472
204.447
196.062
187.353
178.36
169.123
159.686
150.088
140.375
130.587
120.768
110.959
101.201
91.532
81.991
72.615
63.437
54.491
45.807
37.413
29.336
21.598
14.221
7.223
0.618
-5.582
-11.367
-16.731
-21.671
-26.185
-30.277
-33.949
-37.209
-40.066
-42.532
-44.619
-46.344
-47.723
-48.776
-49.521
-49.981
-50.176
-50.128
-49.861
-49.397
-48.758
-47.966
-47.044
-46.013
-44.893
-43.705
-42.467
-41.199
-39.917
-38.638
-37.375
-36.143
-34.952
-33.815
-32.74
-31.734
-30.803
-29.954
-29.188
-28.508
-27.915
-27.407
-26.984
-26.642
-26.376
-26.183
-26.055
-25.987
-25.971
-26.001
-26.068
-26.164
-26.283
-26.416
-26.555
-26.695
-26.827
-26.946
-27.044
-27.116
-27.157
-27.162
-27.127
-27.048
-26.921
-26.745
-26.517
-26.237
-25.903
-25.515
-25.074
-24.581
-24.037
-23.445
-22.807
-22.127
-21.409
-20.656
-19.874
-19.066
-18.239
-17.397
-16.545
-15.689
-14.834
-13.983
-13.143
-12.316
-11.507
-10.72
-9.957
-9.223
-8.519
-7.847
-7.211
-6.611
-6.048
-5.525
-5.042
-4.6
-4.199
-3.839
-3.52
-3.243
-3.006
-2.81
-2.653
-2.534
-2.453
-2.408
-2.398
-2.42
-2.472
-2.554
-2.663
-2.796
-2.954
-3.133
-3.332
-3.55
-3.786
-4.038
-4.307
-4.591
-4.889
-5.202
-5.53
-5.871
-6.226
-6.596
-6.979
-7.377
-7.788
-8.213
-8.652
-9.104
-9.57
-10.048
-10.538
-11.039
-11.553
-12.077
-12.612
-13.157
-13.713
-14.279
-14.855
-15.441
-16.036
-16.64
-17.254
-17.876
-18.506
-19.145
-19.79
-20.443
-21.102
-21.766
-22.436
-23.109
-23.786
-24.466
-25.148
-25.831
-26.514
-27.198
-27.882
-28.566
-29.249
-29.93
-30.61
-31.288
-31.963
-32.634
-33.3
-33.959
-34.611
-35.254
-35.886
-36.505
-37.109
-37.694
-38.258
-38.799
-39.311
-39.792
-40.236
-40.641
-41
-41.31
-41.566
-41.765
-41.9
-41.968
-41.963
-41.88
-41.716
-41.466
-41.123
-40.684
-40.145
-39.503
-38.754
-37.897
-36.928
-35.848
-34.655
-33.351
-31.938
-30.416
-28.789
-27.061
-25.238
-23.327
-21.334
-19.27
-17.146
-14.977
-12.777
-10.563
-8.351
-6.159
-4.005
-1.908
0.116
2.052
3.881
5.588
7.155
8.561
9.785
10.811
11.624
12.206
12.547
12.63
12.448
12
11.283
10.292
9.017
7.435
5.533
3.309
0.765
-2.092
-5.246
-8.682
-12.369
-16.255
-20.289
-24.425
-28.622
-32.858
-37.1
-41.294
-45.376
-49.263
-52.886
-56.208
-59.199
-61.834
-64.105
-66.028
-67.65
-69.061
-70.355
-71.621
-72.936
-74.385
-76.073
-78.102
-80.62
-83.83
-87.828
-92.587
-97.951
-103.559
-109.032
-114.061
-118.2
-120.888
-121.787
-120.784
-118.197
-114.965
-111.961
-109.813
-109.163
-110.495
-113.988
-119.547
-126.2
-131.778
-133.881
-130.168
-118.374
-96.417
-62.257
-14.154
48.862
125.142
210.448
300.416
390.572
478.53
566.12
652.994
733.841
799.565
834.69
825.156
767.469
665.066
527.817
371.066
207.282
49.637
-85.102
-184.497
-241.136
-257.19
-245.275
-219.922
-194.087
-172.888
-156.467
-144.311
-132.644
-121.043
-110.141
-98.844
-90.366
-86.772
-87.528
-92.462
-98.669
-103.378
-106.197
-107.074
-106.233
-103.806
-99.759
-94.418
-88.704
-83.738
-80.054
-77.712
-76.707
-77.033
-78.666
-81.525
-85.231
-89.177
-92.942
-96.275
-99.028
-101.166
-102.634
-103.36
-103.34
-102.64
-101.326
-99.463
-97.091
-94.213
-90.848
-87.034
-82.824
-78.295
-73.519
-68.563
-63.469
-58.262
-52.956
-47.56
-42.075
-36.494
-30.798
-24.959
-18.96
-12.793
-6.455
0.056
6.75
13.64
20.733
28.033
35.539
43.242
51.133
59.201
67.429
75.794
84.271
92.831
101.446
110.089
118.732
127.345
135.896
144.352
152.68
160.846
168.815
176.551
184.017
191.176
197.992
204.429
210.452
216.029
221.128
225.718
229.773
233.267
236.179
238.488
240.177
241.233
241.645
241.406
240.513
238.966
236.767
233.926
230.451
226.359
221.667
216.396
210.569
204.213
197.358
190.036
182.28
174.128
165.616
156.787
147.68
138.341
128.811
119.137
109.362
99.531
89.688
79.876
70.137
60.512
51.039
41.757
32.699
23.899
15.388
7.194
-0.657
-8.144
-15.245
-21.945
-28.229
-34.086
-39.508
-44.488
-49.025
-53.116
-56.763
-59.971
-62.744
-65.091
-67.023
-68.551
-69.69
-70.455
-70.863
-70.932
-70.682
-70.132
-69.304
-68.219
-66.897
-65.361
-63.631
-61.729
-59.676
-57.492
-55.197
-52.81
-50.35
-47.832
-45.275
-42.692
-40.098
-37.506
-34.928
-32.376
-29.859
-27.387
-24.969
-22.612
-20.323
-18.107
-15.968
-13.911
-11.937
-10.048
-8.244
-6.525
-4.89
-3.337
-1.862
-0.463
0.863
2.123
3.319
4.459
5.547
6.589
7.592
8.561
9.504
10.425
11.331
12.228
13.122
14.018
14.921
15.839
16.775
17.736
18.726
19.75
20.813
21.917
23.067
24.265
25.512
26.809
28.159
29.559
31.008
32.506
34.049
35.633
37.255
38.908
40.587
42.284
43.993
45.705
47.411
49.103
50.77
52.403
53.992
55.526
56.996
58.389
59.695
60.903
62.001
62.98
63.828
64.535
65.091
65.487
65.714
65.763
65.629
65.304
64.783
64.062
63.137
62.007
60.671
59.13
57.385
55.44
53.299
50.968
48.453
45.764
42.909
39.897
36.74
33.448
30.036
26.514
22.898
19.201
15.438
11.623
7.773
3.901
0.024
-3.843
-7.686
-11.491
-15.243
-18.929
-22.537
-26.054
-29.469
-32.774
-35.957
-39.013
-41.935
-44.717
-47.357
-49.851
-52.201
-54.405
-56.466
-58.388
-60.174
-61.831
-63.364
-64.781
-66.09
-67.3
-68.422
-69.464
-70.439
-71.357
-72.23
-73.069
-73.887
-74.695
-75.503
-76.322
-77.163
-78.035
-78.946
-79.906
-80.92
-81.996
-83.137
-84.349
-85.633
-86.99
-88.418
-89.916
-91.479
-93.101
-94.774
-96.491
-98.24
-100.01
-101.789
-103.564
-105.32
-107.041
-108.71
-110.313
-111.829
-113.241
-114.53
-115.677
-116.663
-117.469
-118.078
-118.471
-118.632
-118.543
-118.19
-117.559
-116.634
-115.402
-113.853
-111.975
-109.76
-107.202
-104.296
-101.039
-97.431
-93.472
-89.168
-84.524
-79.546
-74.243
-68.625
-62.703
-56.491
-50.003
-43.252
-36.256
-29.033
-21.605
-13.993
-6.22
1.687
9.704
17.8
25.946
34.117
42.286
50.429
58.521
66.532
74.438
82.213
89.831
97.266
104.49
111.469
118.178
124.598
130.715
136.522
142.007
147.147
151.92
156.31
160.288
163.827
166.883
169.398
171.334
172.68
173.432
173.606
173.209
172.235
170.686
168.573
165.912
162.738
159.079
154.959
150.44
145.624
140.646
135.681
130.858
126.249
121.909
117.869
114.16
110.82
107.843
105.182
102.781
100.576
98.509
96.521
94.48
92.191
89.394
85.771
81.062
75.051
67.542
58.401
47.468
34.552
19.632
2.852
-15.496
-34.909
-54.891
-75.054
-94.829
-113.512
-130.558
-145.618
-158.903
-171.252
-183.534
-196.405
-210.405
-225.961
-243.181
-261.733
-280.279
-296.349
-306.96
-309.244
-300.84
-279.536
-243.56
-191.86
-124.207
-43.2
45.743
137.322
226.23
310.192
391.174
467.454
533.842
579.949
590.064
556.037
477.827
363.391
227.216
79.514
-71.144
-216.157
-345.821
-445.125
-503.864
-520.577
-502.099
-466.886
-432.084
-407.601
-398.817
-399.675
-401.314
-399.332
-389.332
-373.78
-358.986
-347.317
-341.044
-339.857
-340.22
-340.926
-341.664
-341.642
-341.225
-340.427
-338.382
-334.977
-330.566
-325.21
-319.321
-313.567
-308.119
-303.134
-298.928
-295.414
-292.398
-289.728
-286.992
-283.742
-279.774
-274.937
-269.141
-262.434
-254.83
-246.349
-237.105
-227.208
-216.743
-205.782
-194.361
-182.517
-170.319
-157.853
-145.213
-132.478
-119.695
-106.901
-94.121
-81.374
-68.677
-56.033
-43.432
-30.873
-18.361
-5.903
6.485
18.795
31.027
43.178
55.251
67.244
79.152
90.966
102.679
114.276
125.744
137.066
148.223
159.196
169.97
180.531
190.864
200.953
210.781
220.332
229.589
238.532
247.143
255.402
263.287
270.779
277.858
284.504
290.697
296.418
301.649
306.373
310.573
314.234
317.34
319.88
321.841
323.214
323.992
324.169
323.741
322.707
321.069
318.829
315.996
312.577
308.583
304.03
298.932
293.31
287.183
280.575
273.512
266.019
258.128
249.868
241.274
232.378
223.216
213.825
204.242
194.504
184.649
174.716
164.741
154.762
144.816
134.939
125.166
115.53
106.064
96.799
87.763
78.984
70.486
62.292
54.422
46.893
39.721
32.919
26.497
20.463
14.824
9.582
4.738
0.293
-3.758
-7.42
-10.699
-13.604
-16.147
-18.34
-20.195
-21.729
-22.956
-23.895
-24.564
-24.98
-25.163
-25.132
-24.908
-24.511
-23.961
-23.277
-22.479
-21.588
-20.62
-19.594
-18.527
-17.435
-16.333
-15.236
-14.157
-13.108
-12.102
-11.147
-10.255
-9.433
-8.689
-8.029
-7.459
-6.983
-6.605
-6.327
-6.151
-6.077
-6.106
-6.237
-6.468
-6.797
-7.222
-7.738
-8.341
-9.026
-9.789
-10.623
-11.522
-12.481
-13.492
-14.549
-15.646
-16.775
-17.931
-19.107
-20.296
-21.492
-22.687
-23.876
-25.052
-26.208
-27.339
-28.439
-29.503
-30.525
-31.501
-32.425
-33.295
-34.105
-34.854
-35.538
-36.154
-36.701
-37.177
-37.583
-37.918
-38.184
-38.38
-38.509
-38.574
-38.577
-38.52
-38.409
-38.246
-38.036
-37.784
-37.495
-37.173
-36.826
-36.459
-36.078
-35.691
-35.303
-34.923
-34.557
-34.212
-33.896
-33.615
-33.376
-33.186
-33.052
-32.98
-32.976
-33.046
-33.194
-33.425
-33.743
-34.151
-34.652
-35.247
-35.938
-36.726
-37.61
-38.59
-39.666
-40.836
-42.098
-43.45
-44.888
-46.409
-48.008
-49.682
-51.424
-53.229
-55.092
-57.006
-58.963
-60.959
-62.985
-65.034
-67.099
-69.173
-71.248
-73.317
-75.373
-77.41
-79.42
-81.398
-83.339
-85.237
-87.088
-88.889
-90.635
-92.324
-93.953
-95.52
-97.023
-98.46
-99.83
-101.133
-102.368
-103.536
-104.637
-105.672
-106.644
-107.552
-108.401
-109.191
-109.925
-110.606
-111.238
-111.822
-112.362
-112.862
-113.324
-113.753
-114.15
-114.519
-114.862
-115.18
-115.474
-115.746
-115.996
-116.224
-116.429
-116.61
-116.766
-116.896
-116.998
-117.07
-117.11
-117.115
-117.083
-117.01
-116.892
-116.726
-116.508
-116.234
-115.899
-115.499
-115.031
-114.49
-113.871
-113.17
-112.382
-111.504
-110.53
-109.458
-108.283
-107.003
-105.617
-104.122
-102.521
-100.812
-98.996
-97.075
-95.053
-92.931
-90.716
-88.412
-86.025
-83.56
-81.027
-78.434
-75.791
-73.108
-70.395
-67.666
-64.934
-62.215
-59.526
-56.886
-54.311
-51.819
-49.427
-47.15
-45.005
-43.006
-41.163
-39.49
-38.001
-36.708
-35.626
-34.771
-34.149
-33.767
-33.624
-33.71
-34.021
-34.555
-35.31
-36.295
-37.515
-38.971
-40.665
-42.6
-44.767
-47.152
-49.719
-52.409
-55.172
-57.971
-60.795
-63.652
-66.524
-69.352
-72.056
-74.55
-76.773
-78.715
-80.33
-81.516
-82.246
-82.616
-82.872
-83.331
-84.154
-85.266
-86.535
-87.983
-89.621
-91.314
-92.711
-93.397
-93.248
-92.617
-92.044
-91.676
-91.503
-91.612
-92.187
-93.492
-95.522
-97.672
-99.24
-100.307
-101.198
-102.262
-103.909
-106.166
-109.093
-113.129
-118.202
-122.954
-125.53
-123.486
-113.988
-94.743
-63.374
-17.545
43.851
120.324
210.146
309.835
414.518
518.901
616.696
701.139
765.995
805.845
816.512
797.156
750.251
679.07
587.424
476.391
345.571
199.956
50.82
-83.763
-185.018
-245.053
-267.775
-265.318
-251.926
-233.403
-208.769
-178.278
-142.599
-107.343
-80.741
-63.064
-53.123
-48.506
-44.357
-41.782
-41.769
-43.368
-47.001
-50.601
-52.223
-51.675
-48.673
-43.604
-37.364
-30.579
-23.865
-17.999
-13.42
-10.338
-8.854
-8.822
-9.968
-11.964
-14.37
-16.662
-18.505
-19.719
-20.204
-19.982
-19.061
-17.433
-15.165
-12.356
-9.078
-5.385
-1.304
3.162
7.97
13.051
18.33
23.72
29.173
34.666
40.184
45.722
51.278
56.854
62.473
68.166
73.951
79.842
85.844
91.96
98.201
104.583
111.12
117.822
124.695
131.735
138.94
146.302
153.807
161.441
169.18
177.001
184.88
192.796
200.723
208.637
216.511
224.315
232.019
239.594
247.006
254.221
261.204
267.922
274.339
280.422
286.137
291.453
296.337
300.759
304.69
308.103
310.972
313.274
314.988
316.096
316.582
316.434
315.643
314.204
312.114
309.375
305.99
301.97
297.324
292.069
286.222
279.806
272.844
265.365
257.399
248.978
240.137
230.913
221.346
211.475
201.342
190.989
180.459
169.795
159.043
148.245
137.444
126.685
116.009
105.456
95.068
84.88
74.93
65.251
55.874
46.829
38.14
29.833
21.927
14.441
7.389
0.782
-5.369
-11.06
-16.288
-21.052
-25.355
-29.202
-32.599
-35.558
-38.087
-40.202
-41.915
-43.245
-44.208
-44.824
-45.114
-45.099
-44.801
-44.245
-43.453
-42.449
-41.259
-39.905
-38.412
-36.802
-35.099
-33.325
-31.5
-29.645
-27.781
-25.924
-24.091
-22.299
-20.562
-18.892
-17.3
-15.797
-14.391
-13.091
-11.902
-10.83
-9.879
-9.053
-8.354
-7.784
-7.342
-7.028
-6.84
-6.775
-6.831
-7.001
-7.282
-7.668
-8.152
-8.729
-9.39
-10.13
-10.94
-11.813
-12.74
-13.715
-14.73
-15.776
-16.847
-17.936
-19.037
-20.142
-21.246
-22.344
-23.43
-24.5
-25.548
-26.57
-27.561
-28.518
-29.437
-30.315
-31.149
-31.936
-32.675
-33.363
-34.001
-34.587
-35.121
-35.604
-36.035
-36.416
-36.748
-37.032
-37.27
-37.464
-37.615
-37.726
-37.8
-37.838
-37.842
-37.814
-37.756
-37.67
-37.557
-37.419
-37.256
-37.071
-36.865
-36.64
-36.396
-36.134
-35.857
-35.565
-35.259
-34.939
-34.607
-34.263
-33.906
-33.536
-33.155
-32.761
-32.353
-31.933
-31.498
-31.049
-30.584
-30.104
-29.607
-29.094
-28.564
-28.017
-27.454
-26.875
-26.281
-25.674
-25.053
-24.422
-23.782
-23.134
-22.48
-21.823
-21.164
-20.506
-19.85
-19.2
-18.557
-17.924
-17.303
-16.698
-16.11
-15.541
-14.994
-14.472
-13.975
-13.505
-13.065
-12.654
-12.275
-11.926
-11.608
-11.319
-11.059
-10.824
-10.613
-10.421
-10.244
-10.079
-9.92
-9.761
-9.597
-9.42
-9.225
-9.005
-8.751
-8.457
-8.113
-7.71
-7.242
-6.7
-6.075
-5.36
-4.546
-3.624
-2.589
-1.434
-0.151
1.266
2.822
4.521
6.367
8.362
10.507
12.803
15.248
17.84
20.574
23.445
26.445
29.567
32.801
36.138
39.566
43.072
46.643
50.262
53.914
57.576
61.229
64.851
68.419
71.911
75.305
78.576
81.706
84.676
87.469
90.066
92.448
94.594
96.486
98.109
99.449
100.493
101.231
101.651
101.754
101.543
101.02
100.186
99.031
97.537
95.696
93.512
90.99
88.14
84.976
81.516
77.799
73.883
69.826
65.68
61.488
57.278
53.1
49.024
45.127
41.503
38.224
35.332
32.864
30.863
29.334
28.272
27.645
27.34
27.256
27.301
27.355
27.326
27.115
26.54
25.376
23.47
20.779
17.461
13.884
10.412
7.4
5.294
4.612
5.77
8.861
13.377
18.253
22.285
24.412
23.803
19.823
12.247
1.548
-10.696
-21.786
-28.368
-26.943
-14.502
11.505
53.113
111.459
186.287
275.774
375.313
477.909
577.281
668.316
749.311
821.185
881.479
922.669
933.518
904.428
833.149
728.18
603.436
468.943
333.487
202.619
82.974
-10.502
-68.715
-90.233
-81.393
-59.666
-37.354
-19.387
-6.589
5.928
19.77
33.445
45.584
53.824
57.694
58.094
55.751
51.912
47.174
40.853
32.294
20.895
6.08
-11.992
-33.237
-58.025
-85.848
-115.288
-144.919
-173.189
-198.862
-221.498
-240.436
-254.66
-264.152
-269.663
-272.213
-273.272
-273.866
-274.37
-275.427
-277.884
-282.017
-287.712
-294.488
-301.392
-307.863
-313.769
-318.867
-322.904
-325.741
-327.291
-327.704
-327.378
-326.523
-325.176
-323.355
-321.013
-318.153
-314.83
-311.038
-306.726
-301.872
-296.48
-290.579
-284.226
-277.462
-270.317
-262.819
-254.99
-246.868
-238.495
-229.922
-221.218
-212.439
-203.63
-194.837
-186.084
-177.393
-168.793
-160.306
-151.953
-143.743
-135.662
-127.69
-119.823
-112.042
-104.321
-96.624
-88.873
-81.014
-73.025
-64.884
-56.605
-48.213
-39.725
-31.172
-22.62
-14.144
-5.856
2.1
9.606
16.525
22.696
27.971
32.162
35.121
36.767
37.021
35.83
33.173
29.025
23.382
16.31
7.872
-1.846
-12.683
-24.492
-37.089
-50.232
-63.712
-77.312
-90.843
-104.181
-117.207
-129.798
-141.862
-153.31
-164.06
-174.084
-183.334
-191.743
-199.333
-206.141
-212.239
-217.778
-222.861
-227.565
-231.965
-236.094
-239.975
-243.654
-247.145
-250.449
-253.584
-256.553
-259.387
-262.156
-264.867
-267.503
-270.021
-272.33
-274.367
-276.11
-277.525
-278.596
-279.322
-279.693
-279.724
-279.456
-278.907
-278.089
-277.004
-275.626
-273.955
-272.014
-269.836
-267.472
-264.965
-262.34
-259.631
-256.874
-254.091
-251.304
-248.523
-245.741
-242.96
-240.191
-237.445
-234.741
-232.091
-229.5
-226.973
-224.51
-222.113
-219.781
-217.512
-215.3
-213.14
-211.03
-208.972
-206.97
-205.024
-203.134
-201.3
-199.521
-197.797
-196.126
-194.505
-192.932
-191.403
-189.917
-188.473
-187.069
-185.706
-184.382
-183.096
-181.848
-180.639
-179.468
-178.336
-177.241
-176.183
-175.163
-174.181
-173.236
-172.33
-171.461
-170.631
-169.84
-169.088
-168.374
-167.697
-167.058
-166.455
-165.885
-165.347
-164.838
-164.356
-163.897
-163.458
-163.035
-162.626
-162.227
-161.832
-161.437
-161.038
-160.629
-160.205
-159.761
-159.291
-158.79
-158.251
-157.67
-157.042
-156.361
-155.623
-154.823
-153.958
-153.023
-152.016
-150.933
-149.772
-148.532
-147.21
-145.807
-144.323
-142.758
-141.113
-139.391
-137.595
-135.726
-133.79
-131.789
-129.731
-127.619
-125.459
-123.259
-121.025
-118.763
-116.483
-114.19
-111.893
-109.601
-107.321
-105.06
-102.828
-100.632
-98.479
-96.376
-94.329
-92.346
-90.431
-88.589
-86.824
-85.139
-83.536
-82.017
-80.583
-79.233
-77.968
-76.784
-75.681
-74.655
-73.701
-72.815
-71.99
-71.219
-70.496
-69.812
-69.157
-68.522
-67.897
-67.272
-66.635
-65.975
-65.281
-64.541
-63.744
-62.878
-61.931
-60.893
-59.753
-58.501
-57.13
-55.631
-53.999
-52.228
-50.314
-48.253
-46.045
-43.689
-41.187
-38.54
-35.751
-32.826
-29.771
-26.595
-23.307
-19.919
-16.445
-12.902
-9.309
-5.683
-2.046
1.582
5.178
8.719
12.185
15.555
18.809
21.925
24.881
27.655
30.224
32.57
34.677
36.527
38.108
39.405
40.412
41.129
41.552
41.677
41.493
40.982
40.132
38.94
37.413
35.555
33.381
30.905
28.159
25.197
22.071
18.835
15.531
12.193
8.864
5.607
2.5
-0.371
-2.924
-5.113
-6.9
-8.244
-9.126
-9.542
-9.516
-9.142
-8.53
-7.778
-6.992
-6.266
-5.683
-5.387
-5.593
-6.443
-8.005
-10.202
-12.744
-15.335
-17.732
-19.57
-20.376
-19.762
-17.431
-13.49
-8.693
-3.861
0.257
2.881
3.458
1.677
-2.625
-8.829
-15.1
-19.113
-18.188
-9.539
9.245
40.598
86.822
149.291
226.749
315.695
412.015
511.81
614.527
720.215
824.07
916.685
982.626
1008.11
990.552
935.172
854.431
757.782
643.908
512.497
366.336
218.638
94.451
11.502
-23.433
-17.678
9.326
41.012
66.259
81.258
87.628
88.649
89.454
93.346
103.339
119.432
137.197
153.636
165.943
173.346
178.334
181.657
182.858
181.805
177.949
171.882
165.541
159.973
155.472
152.458
151.067
151.333
153.372
156.667
160.153
163.254
165.784
167.708
169.289
170.703
171.986
173.393
175.306
177.945
181.422
185.718
190.671
196.183
202.212
208.692
215.559
222.745
230.176
237.799
245.575
253.471
261.459
269.512
277.607
285.732
293.884
302.074
310.322
318.637
327.023
335.476
343.987
352.552
361.173
369.849
378.579
387.361
396.187
405.055
413.959
422.889
431.831
440.767
449.675
458.535
467.326
476.03
484.626
493.093
501.405
509.541
517.476
525.184
532.636
539.806
546.663
553.178
559.324
565.072
570.396
575.268
579.663
583.558
586.931
589.76
592.026
593.714
594.807
595.296
595.17
594.422
593.05
591.052
588.431
585.192
581.346
576.903
571.878
566.291
560.161
553.513
546.374
538.773
530.741
522.312
513.522
504.408
495.009
485.365
475.517
465.506
455.374
445.163
434.914
424.668
414.464
404.343
394.34
384.493
374.835
365.398
356.213
347.307
338.704
330.428
322.497
314.929
307.738
300.935
294.528
288.523
282.923
277.728
272.936
268.54
264.534
260.908
257.649
254.745
252.179
249.936
247.996
246.343
244.955
243.812
242.894
242.18
241.647
241.275
241.043
240.929
240.914
240.98
241.108
241.283
241.49
241.713
241.941
242.161
242.362
242.534
242.668
242.756
242.792
242.772
242.694
242.556
242.359
242.1
241.778
241.394
240.951
240.449
239.889
239.275
238.61
237.897
237.145
236.361
235.549
234.711
233.843
232.948
232.029
231.094
230.15
229.202
228.253
227.305
226.361
225.422
224.485
223.54
222.57
221.56
220.503
219.395
218.248
217.056
215.802
214.452
212.943
211.234
209.304
207.137
204.739
202.102
199.18
195.984
192.58
188.963
185.092
180.801
175.763
169.846
163.144
155.789
147.977
139.968
131.983
124.541
118.494
114.226
111.636
110.326
109.531
108.582
107.039
104.088
98.564
89.869
77.967
63.36
47.106
29.907
12.097
-5.694
-22.604
-38.017
-51.664
-63.925
-75.487
-86.369
-96.559
-106.384
-116.067
-126.376
-137.036
-145.619
-151.996
-157.996
-166.464
-183.485
-208.787
-234.987
-255.063
-259.949
-248.717
-230.811
-214.275
-207.225
-212.413
-224.817
-241.338
-259.656
-278.658
-300.097
-323.764
-348.415
-373.194
-396.418
-417.038
-434.972
-450.136
-462.985
-474.558
-485.316
-495.298
-504.619
-513.102
-520.443
-526.441
-530.344
-530.929
-527.677
-520.678
-510.348
-497.585
-483.16
-467.567
-451.826
-437.428
-425.221
-415.43
-407.613
-400.554
-393.31
-385.378
-375.947
-363.95
-348.798
-330.339
-309.109
-286.424
-263.237
-239.993
-217.13
-195.016
-173.693
-153.025
-132.531
-111.31
-88.904
-65.399
-41.187
-17.028
5.892
26.16
42.316
52.792
56.43
52.637
41.255
22.613
-2.352
-32.232
-65.598
-100.952
-137.025
-172.987
-208.275
-242.579
-275.967
-308.805
-341.357
-373.838
-406.288
-438.418
-469.822
-500.019
-528.436
-554.508
-577.854
-598.242
-615.597
-630.023
-641.656
-650.696
-657.417
-662.102
-665.031
-666.463
-666.663
-665.929
-664.608
-663.116
-661.878
-661.193
-661.237
-662.003
-663.239
-664.633
-665.895
-666.604
-666.264
-664.53
-661.245
-656.766
-652.024
-648.021
-645.638
-645.601
-648.486
-654.593
-663.695
-674.471
-684.537
-690.952
-690.6
-680.695
-658.652
-622.251
-570.167
-502.55
-421.225
-329.487
-231.79
-133.007
-38.632
45.345
112.95
158.907
179.276
172.889
141.474
87.153
12.262
-83.223
-200.343
-334.716
-475.733
-605.77
-706.314
-767.913
-792.483
-791.875
-779.371
-762.574
-742.907
-717.346
-684.868
-648.492
-612.726
-582.791
-561.711
-549.572
-545.51
-547.899
-554.573
-563.424
-572.533
-580.002
-584.435
-585.308
-582.475
-576.169
-567.194
-556.505
-545.065
-534.02
-524.153
-515.721
-508.837
-503.376
-498.99
-495.349
-492.002
-488.348
-484.025
-478.873
-472.806
-465.878
-458.14
-449.585
-440.281
-430.336
-419.812
-408.767
-397.231
-385.202
-372.723
-359.868
-346.715
-333.359
-319.862
-306.257
-292.575
-278.838
-265.059
-251.253
-237.418
-223.54
-209.619
-195.655
-181.654
-167.626
-153.573
-139.491
-125.377
-111.228
-97.046
-82.84
-68.619
-54.396
-40.185
-26.006
-11.879
2.171
16.122
29.951
43.638
57.159
70.492
83.609
96.485
109.095
121.409
133.399
145.036
156.29
167.13
177.528
187.454
196.881
205.779
214.124
221.889
229.052
235.589
241.482
246.712
251.263
255.122
258.278
260.723
262.45
263.456
263.742
263.309
262.163
260.312
257.768
254.543
250.654
246.121
240.965
235.209
228.882
222.011
214.627
206.765
198.46
189.748
180.668
171.261
161.566
151.625
141.48
131.173
120.747
110.242
99.699
89.16
78.663
68.247
57.949
47.804
37.846
28.107
18.618
9.406
0.498
-8.082
-16.313
-24.174
-31.65
-38.724
-45.384
-51.62
-57.425
-62.791
-67.718
-72.202
-76.247
-79.855
-83.032
-85.786
-88.126
-90.063
-91.611
-92.783
-93.595
-94.062
-94.203
-94.035
-93.577
-92.849
-91.868
-90.656
-89.232
-87.616
-85.826
-83.882
-81.803
-79.608
-77.313
-74.936
-72.494
-70.003
-67.476
-64.929
-62.373
-59.823
-57.287
-54.777
-52.301
-49.866
-47.481
-45.149
-42.877
-40.667
-38.523
-36.446
-34.438
-32.499
-30.629
-28.828
-27.095
-25.429
-23.827
-22.289
-20.812
-19.395
-18.035
-16.731
-15.482
-14.285
-13.139
-12.044
-10.998
-10
-9.05
-8.149
-7.295
-6.491
-5.735
-5.03
-4.378
-3.779
-3.235
-2.748
-2.321
-1.956
-1.654
-1.419
-1.252
-1.156
-1.133
-1.184
-1.31
-1.513
-1.793
-2.149
-2.581
-3.088
-3.667
-4.315
-5.03
-5.806
-6.64
-7.526
-8.457
-9.428
-10.429
-11.454
-12.493
-13.538
-14.579
-15.607
-16.612
-17.583
-18.511
-19.387
-20.2
-20.941
-21.6
-22.168
-22.637
-22.998
-23.243
-23.365
-23.357
-23.212
-22.928
-22.5
-21.924
-21.2
-20.327
-19.304
-18.135
-16.821
-15.366
-13.776
-12.056
-10.214
-8.26
-6.204
-4.056
-1.827
0.469
2.818
5.207
7.621
10.045
12.465
14.866
17.23
19.543
21.789
23.951
26.012
27.953
29.757
31.405
32.882
34.171
35.257
36.124
36.762
37.163
37.318
37.221
36.866
36.244
35.352
34.186
32.747
31.037
29.058
26.815
24.317
21.581
18.622
15.451
12.073
8.486
4.693
0.706
-3.461
-7.788
-12.251
-16.824
-21.465
-26.116
-30.722
-35.232
-39.603
-43.81
-47.811
-51.552
-54.975
-58.005
-60.594
-62.71
-64.322
-65.416
-66
-66.106
-65.793
-65.158
-64.29
-63.279
-62.229
-61.23
-60.392
-59.824
-59.664
-60.106
-61.233
-62.995
-65.22
-67.557
-69.627
-71.143
-71.722
-70.809
-68.122
-63.759
-58.187
-52.406
-47.382
-43.609
-41.542
-41.755
-44.355
-48.688
-53.287
-55.644
-53.05
-43.503
-25.103
4.222
45.947
100.506
167.027
242.951
324.644
408.548
490.566
565.546
628.285
674.032
698.742
701.188
683.004
645.646
591.475
520.512
429.208
319.281
197.378
77.61
-18.611
-78.758
-101.084
-94.229
-76.236
-58.493
-44.264
-32.251
-16.855
3.184
25.218
46.502
63.572
74.689
80.225
80.778
78.392
76.395
75.547
75.186
73.257
65.064
50.508
33.318
18.008
13.603
26.106
55.017
97.234
141.446
171.521
178.127
157.545
115.846
71.881
39.819
27.572
37.01
56.215
75.645
90.673
97.531
101.12
105.298
110.15
116.614
122.703
126.834
129.818
132.225
134.62
137.489
140.728
144.245
148.287
153.009
158.289
163.861
169.509
175.137
180.778
186.533
192.393
198.312
204.296
210.388
216.641
223.093
229.734
236.521
243.417
250.406
257.478
264.629
271.845
279.104
286.384
293.662
300.921
308.143
315.31
322.399
329.385
336.24
342.941
349.461
355.776
361.855
367.664
373.167
378.335
383.138
387.547
391.532
395.053
398.083
400.602
402.598
404.062
404.997
405.404
405.298
404.714
403.682
402.234
400.397
398.179
395.587
392.635
389.339
385.722
381.794
377.536
372.927
367.955
362.603
356.855
350.683
344.018
336.812
329.041
320.699
311.828
302.489
292.736
282.64
272.291
261.803
251.34
241.082
231.178
221.774
213.014
205.051
198.092
192.315
187.846
184.786
183.178
183.039
184.382
187.196
191.417
196.95
203.648
211.33
219.862
229.118
238.966
249.271
259.859
270.566
281.275
291.894
302.358
312.619
322.627
332.34
341.758
350.911
359.873
368.735
377.548
386.332
395.082
403.805
412.56
421.345
430.087
438.703
447.11
455.267
463.224
470.996
478.474
485.701
492.957
500.253
507.409
514.423
520.963
527.555
536.087
546.125
555.689
561.813
558.897
547.044
531.916
519.223
517.309
527.118
540.846
552.579
555.663
549.316
541.421
535.339
531.496
527.649
515.343
493.266
467.481
443.926
431.814
432.517
437.559
440.533
434.705
418.948
400.469
383.8
371.669
364.902
360.207
355.349
349.753
342.251
331.483
317.452
299.877
277.436
251.103
219.736
181.705
141.885
103.94
72.668
54.173
44.881
40.698
38.333
32.659
25.368
18.564
11.985
6.309
0.106
-7.761
-16.594
-25.744
-34.61
-42.804
-50.282
-56.926
-62.618
-67.421
-71.626
-75.727
-80.016
-84.567
-89.413
-94.518
-99.876
-105.512
-111.357
-117.282
-123.221
-129.149
-135.041
-140.914
-146.76
-152.553
-158.316
-164.03
-169.61
-175.022
-180.326
-185.712
-191.435
-197.611
-204.115
-210.761
-217.484
-224.222
-230.81
-236.746
-241.306
-244.028
-245.014
-244.842
-244.11
-243.327
-242.93
-243.675
-246.696
-252.948
-262.716
-275.366
-289.853
-305.13
-320.448
-335.036
-347.796
-357.61
-363.746
-366.407
-366.502
-365.156
-363.151
-360.98
-359.224
-358.566
-359.675
-362.703
-367.194
-372.391
-377.741
-383.022
-388.11
-392.851
-396.958
-400.238
-402.775
-404.839
-406.642
-408.229
-409.54
-410.473
-411.013
-411.201
-411.029
-410.444
-409.371
-407.742
-405.534
-402.77
-399.474
-395.664
-391.356
-386.572
-381.382
-375.915
-370.296
-364.637
-359.006
-353.442
-348
-342.767
-337.848
-333.349
-329.332
-325.861
-323.005
-320.753
-319.029
-317.616
-316.073
-313.923
-310.737
-306.042
-299.457
-290.78
-279.921
-267.174
-253.244
-238.779
-224.407
-210.766
-198.179
-186.782
-176.725
-167.185
-156.437
-143.067
-124.308
-97.291
-61.569
-15.758
39.319
99.906
165.987
236.688
312.059
395.399
485.143
576.883
662.234
728.63
764.849
761.369
716.007
631.125
511.575
370.855
222.819
84.531
-23.133
-92.334
-124.118
-128.219
-123.507
-119.944
-118.986
-117.806
-109.682
-93.615
-73.708
-54.431
-39.888
-31.48
-28.862
-31.426
-37.788
-46.301
-55.211
-62.787
-68.078
-70.766
-70.524
-67.03
-61.608
-55.807
-49.383
-43.1
-35.004
-22.371
-8.813
3.418
11.004
9.455
3.198
-3.893
-9.171
-8.532
-4.603
-0.117
4.385
7.25
9.477
12.314
15.486
19.135
23.153
27.282
31.705
36.588
41.955
47.84
54.255
61.168
68.498
76.146
83.987
91.89
99.733
107.417
114.85
121.952
128.658
134.866
140.439
145.184
148.867
151.284
152.271
151.708
149.523
145.692
140.244
133.26
124.887
115.269
104.523
92.772
80.154
66.853
53.113
39.249
25.583
12.425
0.071
-11.221
-21.221
-29.743
-36.671
-41.949
-45.596
-47.639
-48.079
-46.94
-44.295
-40.269
-35.059
-28.928
-22.136
-14.938
-7.613
-0.428
6.345
12.443
17.645
21.783
24.732
26.372
26.567
25.207
22.241
17.669
11.553
4.008
-4.857
-14.926
-26.052
-38.072
-50.799
-64.027
-77.559
-91.232
-104.899
-118.409
-131.607
-144.349
-156.532
-168.091
-179.002
-189.259
-198.857
-207.794
-216.085
-223.769
-230.896
-237.537
-243.768
-249.642
-255.203
-260.496
-265.567
-270.454
-275.182
-279.751
-284.145
-288.349
-292.35
-296.133
-299.684
-302.976
-305.979
-308.659
-310.98
-312.919
-314.463
-315.598
-316.32
-316.626
-316.519
-316.013
-315.131
-313.892
-312.314
-310.414
-308.213
-305.73
-302.992
-300.022
-296.844
-293.479
-289.948
-286.269
-282.46
-278.537
-274.515
-270.405
-266.218
-261.965
-257.659
-253.309
-248.928
-244.527
-240.115
-235.7
-231.292
-226.899
-222.527
-218.181
-213.866
-209.585
-205.342
-201.139
-196.98
-192.865
-188.795
-184.77
-180.79
-176.855
-172.962
-169.111
-165.3
-161.525
-157.787
-154.081
-150.408
-146.764
-143.149
-139.56
-135.997
-132.457
-128.94
-125.445
-121.972
-118.52
-115.089
-111.68
-108.293
-104.931
-101.593
-98.283
-95.003
-91.756
-88.544
-85.371
-82.241
-79.157
-76.123
-73.145
-70.225
-67.37
-64.583
-61.871
-59.237
-56.687
-54.227
-51.86
-49.593
-47.428
-45.371
-43.426
-41.595
-39.883
-38.291
-36.822
-35.477
-34.257
-33.161
-32.189
-31.338
-30.607
-29.993
-29.49
-29.094
-28.8
-28.602
-28.492
-28.462
-28.506
-28.613
-28.773
-28.978
-29.215
-29.474
-29.743
-30.009
-30.26
-30.483
-30.667
-30.798
-30.866
-30.857
-30.76
-30.564
-30.258
-29.832
-29.276
-28.583
-27.745
-26.755
-25.609
-24.305
-22.84
-21.213
-19.425
-17.479
-15.376
-13.123
-10.726
-8.191
-5.531
-2.755
0.124
3.09
6.125
9.213
12.33
15.457
18.572
21.651
24.67
27.603
30.422
33.101
35.618
37.947
40.066
41.952
43.579
44.928
45.982
46.726
47.144
47.222
46.94
46.286
45.265
43.881
42.143
40.054
37.605
34.793
31.632
28.132
24.308
20.18
15.758
11.072
6.174
1.125
-4.006
-9.167
-14.334
-19.496
-24.649
-29.757
-34.743
-39.529
-44.053
-48.269
-52.168
-55.725
-58.873
-61.655
-64.208
-66.768
-69.713
-73.243
-77.304
-81.834
-86.745
-91.856
-97.072
-102.053
-106.001
-108.492
-109.472
-108.918
-107.13
-104.398
-100.659
-96.149
-91.686
-87.757
-84.815
-83.416
-83.613
-85.403
-88.834
-93.919
-100.469
-107.862
-114.894
-118.763
-115.462
-103.034
-80.843
-49.664
-12.624
31.662
86.795
155.879
243.708
348.779
465.753
587.655
701.479
794.384
853.395
867.172
833.789
757.944
649.414
521.16
383.421
245.598
118.486
11.049
-70.25
-124.461
-158.497
-179.906
-193.543
-200.617
-197.624
-183.24
-159.99
-132.048
-104.889
-81.96
-64.28
-52.338
-46.246
-45.623
-49.716
-57.071
-65.96
-75.023
-83.147
-89.557
-93.611
-94.947
-93.682
-90.334
-85.681
-80.557
-75.801
-71.954
-69.37
-68.247
-68.506
-69.967
-72.343
-75.194
-78.024
-80.47
-82.312
-83.446
-83.887
-83.636
-82.687
-81.089
-78.917
-76.245
-73.124
-69.58
-65.618
-61.261
-56.562
-51.587
-46.409
-41.091
-35.668
-30.16
-24.578
-18.933
-13.23
-7.463
-1.621
4.31
10.339
16.47
22.712
29.077
35.579
42.23
49.034
55.988
63.071
70.254
77.501
84.772
92.03
99.25
106.414
113.519
120.565
127.557
134.484
141.322
148.048
154.64
161.086
167.377
173.525
179.552
185.492
191.39
197.267
203.118
208.904
214.55
219.964
225.035
229.672
233.808
237.383
240.343
242.636
244.209
244.993
244.908
243.858
241.729
238.442
233.949
228.258
221.422
213.533
204.72
195.098
184.765
173.809
162.304
150.324
137.939
125.23
112.286
99.219
86.165
73.243
60.552
48.157
36.084
24.332
12.869
1.671
-9.275
-19.972
-30.404
-40.552
-50.389
-59.886
-69.016
-77.765
-86.142
-94.15
-101.795
-109.068
-115.946
-122.395
-128.371
-133.835
-138.754
-143.102
-146.868
-150.047
-152.645
-154.674
-156.155
-157.105
-157.536
-157.463
-156.897
-155.854
-154.357
-152.431
-150.103
-147.403
-144.361
-141.009
-137.375
-133.486
-129.368
-125.042
-120.529
-115.851
-111.026
-106.077
-101.026
-95.893
-90.7
-85.468
-80.216
-74.964
-69.729
-64.527
-59.374
-54.282
-49.265
-44.334
-39.501
-34.775
-30.167
-25.684
-21.335
-17.126
-13.064
-9.154
-5.402
-1.81
1.618
4.878
7.97
10.889
13.636
16.209
18.607
20.828
22.873
24.743
26.436
27.955
29.302
30.478
31.486
32.33
33.011
33.535
33.903
34.121
34.193
34.121
33.912
33.569
33.098
32.503
31.789
30.961
30.023
28.98
27.837
26.597
25.266
23.846
22.342
20.756
19.094
17.357
15.548
13.67
11.723
9.71
7.632
5.487
3.277
1.001
-1.344
-3.759
-6.245
-8.808
-11.448
-14.172
-16.982
-19.885
-22.884
-25.984
-29.192
-32.512
-35.948
-39.506
-43.19
-47.003
-50.95
-55.032
-59.253
-63.614
-68.117
-72.762
-77.549
-82.478
-87.545
-92.749
-98.085
-103.548
-109.133
-114.832
-120.637
-126.539
-132.528
-138.591
-144.718
-150.893
-157.103
-163.331
-169.561
-175.774
-181.953
-188.077
-194.129
-200.088
-205.934
-211.648
-217.211
-222.604
-227.809
-232.806
-237.578
-242.109
-246.382
-250.38
-254.09
-257.497
-260.587
-263.35
-265.773
-267.847
-269.565
-270.92
-271.904
-272.515
-272.749
-272.605
-272.084
-271.187
-269.918
-268.282
-266.286
-263.94
-261.255
-258.242
-254.914
-251.286
-247.374
-243.194
-238.763
-234.1
-229.221
-224.147
-218.896
-213.488
-207.945
-202.288
-196.54
-190.725
-184.868
-178.994
-173.129
-167.298
-161.525
-155.835
-150.25
-144.789
-139.472
-134.316
-129.339
-124.56
-119.997
-115.661
-111.564
-107.716
-104.123
-100.793
-97.727
-94.92
-92.365
-90.062
-88.016
-86.242
-84.754
-83.551
-82.631
-81.991
-81.622
-81.512
-81.635
-81.941
-82.38
-82.9
-83.458
-84.024
-84.56
-85.004
-85.282
-85.311
-85.013
-84.344
-83.277
-81.77
-79.807
-77.395
-74.566
-71.422
-68.093
-64.691
-61.345
-58.189
-55.337
-52.977
-51.36
-50.66
-50.979
-52.25
-54.162
-56.388
-58.626
-60.444
-61.314
-60.811
-58.644
-54.998
-50.75
-46.931
-44.508
-44.476
-47.599
-54.21
-64.296
-76.943
-89.774
-99.763
-103.675
-97.872
-79.027
-44.549
8.088
79.329
165.851
263.36
366.96
473.321
583.869
698.697
812.288
912.727
981.242
1001.796
968.896
888.347
774.289
640.172
496.566
351.474
214.414
100.624
21.009
-20.774
-31.017
-26.447
-19.112
-14.218
-11.488
-5.263
5.576
18.006
29.068
35.474
36.711
34.594
30.655
26.555
23.879
23.694
26.528
32.26
40.231
49.506
59.282
68.92
77.757
85.216
90.991
95.014
97.423
98.498
98.489
97.596
96.043
94.047
91.808
89.528
87.397
85.587
84.242
83.459
83.304
83.81
84.995
86.852
89.346
92.421
96.017
100.081
104.567
109.429
114.611
120.039
125.638
131.331
137.066
142.813
148.55
154.27
159.973
165.667
171.373
177.124
182.94
188.837
194.823
200.906
207.095
213.402
219.835
226.403
233.108
239.948
246.919
254.013
261.22
268.522
275.901
283.333
290.796
298.267
305.723
313.141
320.496
327.76
334.905
341.905
348.728
355.343
361.719
367.823
373.621
379.084
384.178
388.874
393.142
396.955
400.285
403.11
405.406
407.152
408.331
408.928
408.93
408.328
407.114
405.286
402.843
399.788
396.127
391.87
387.029
381.62
375.662
369.176
362.187
354.721
346.808
338.478
329.766
320.706
311.336
301.694
291.818
281.748
271.524
261.187
250.775
240.329
229.887
219.486
209.163
198.954
188.89
179.004
169.325
159.881
150.696
141.794
133.193
124.913
116.968
109.37
102.13
95.253
88.746
82.608
76.841
71.44
66.4
61.714
57.372
53.364
49.676
46.294
43.204
40.387
37.827
35.505
33.402
31.499
29.775
28.212
26.788
25.485
24.282
23.162
22.105
21.095
20.112
19.142
18.169
17.177
16.154
15.086
13.962
12.772
11.507
10.159
8.721
7.189
5.557
3.823
1.985
0.04
-2.01
-4.167
-6.427
-8.79
-11.252
-13.81
-16.46
-19.197
-22.016
-24.912
-27.879
-30.911
-34.003
-37.147
-40.336
-43.565
-46.825
-50.11
-53.412
-56.724
-60.037
-63.346
-66.641
-69.918
-73.168
-76.385
-79.563
-82.695
-85.776
-88.801
-91.764
-94.66
-97.484
-100.234
-102.904
-105.491
-107.993
-110.405
-112.726
-114.954
-117.085
-119.119
-121.054
-122.889
-124.623
-126.254
-127.784
-129.212
-130.54
-131.768
-132.898
-133.932
-134.872
-135.721
-136.482
-137.159
-137.755
-138.273
-138.718
-139.095
-139.406
-139.657
-139.853
-139.997
-140.095
-140.15
-140.167
-140.15
-140.104
-140.033
-139.94
-139.831
-139.709
-139.577
-139.441
-139.304
-139.169
-139.041
-138.921
-138.814
-138.721
-138.644
-138.585
-138.545
-138.526
-138.527
-138.548
-138.59
-138.651
-138.729
-138.823
-138.93
-139.049
-139.175
-139.305
-139.436
-139.563
-139.684
-139.793
-139.887
-139.961
-140.01
-140.03
-140.017
-139.964
-139.867
-139.721
-139.519
-139.256
-138.926
-138.524
-138.043
-137.48
-136.828
-136.084
-135.243
-134.301
-133.254
-132.1
-130.837
-129.462
-127.974
-126.372
-124.658
-122.832
-120.897
-118.856
-116.712
-114.471
-112.136
-109.715
-107.212
-104.635
-101.99
-99.287
-96.534
-93.741
-90.919
-88.08
-85.238
-82.41
-79.613
-76.861
-74.172
-71.562
-69.048
-66.649
-64.382
-62.258
-60.293
-58.499
-56.892
-55.487
-54.299
-53.334
-52.6
-52.101
-51.841
-51.828
-52.06
-52.533
-53.242
-54.177
-55.34
-56.742
-58.389
-60.275
-62.392
-64.722
-67.25
-69.96
-72.825
-75.8
-78.836
-81.882
-84.894
-87.835
-90.672
-93.369
-95.878
-98.148
-100.115
-101.718
-102.92
-103.698
-104.048
-104.011
-103.605
-102.826
-101.816
-100.809
-100.036
-99.768
-100.09
-100.874
-102.225
-104.377
-107.232
-110.419
-113.306
-115.032
-115.291
-114.319
-111.983
-108.019
-102.56
-96.169
-90.168
-86.302
-85.496
-87.804
-93.303
-101.911
-113.121
-125.759
-137.366
-144.76
-145.022
-135.911
-115.664
-82.576
-35.343
26.461
102.194
188.734
280.644
373.214
461.726
544.202
622.511
694.132
753.651
791.878
795.208
757.931
681.635
571.763
438.744
292.507
142.448
3.4
-107.226
-179.06
-209.841
-208.938
-195.31
-181.119
-170.561
-162.101
-148.921
-129.331
-106.642
-84.661
-67.407
-56.267
-50.599
-49.491
-51.571
-55.396
-59.47
-62.378
-63.532
-62.817
-60.02
-55.214
-48.713
-40.997
-33.02
-25.807
-19.834
-15.29
-12.323
-10.855
-10.764
-11.92
-13.892
-16.133
-18.278
-20.049
-21.275
-21.936
-21.989
-21.371
-20.097
-18.215
-15.769
-12.822
-9.4
-5.503
-1.148
3.634
8.795
14.266
19.979
25.879
31.927
38.106
44.406
50.822
57.355
64.015
70.824
77.809
84.986
92.363
99.944
107.734
115.741
123.977
132.448
141.153
150.088
159.243
168.604
178.157
187.878
197.742
207.719
217.775
227.879
237.997
248.096
258.141
268.095
277.921
287.578
297.031
306.238
315.159
323.754
331.98
339.799
347.171
354.059
360.426
366.238
371.463
376.071
380.035
383.331
385.936
387.833
389.006
389.444
389.137
388.083
386.278
383.727
380.435
376.414
371.677
366.241
360.126
353.357
