Name,Kevin Dejbod
Date of Birth,"27 Sep 1999"
Recorded Date,2023-09-26 18:54:04 +0800
Classification,Sinus Rhythm
Symptoms,
Software Version,1.90
Device,"Watch5,1"
Sample Rate,512.508 hertz


Lead,Lead I
Unit,µV

-68.862
-79.193
-87.188
-92.589
-95.175
-94.292
-89.859
-82.417
-72.114
-59.329
-44.948
-29.493
-13.53
1.909
16.296
29.447
40.785
50.272
58.398
65.279
71.107
76.301
80.945
85.129
89.263
93.313
96.918
99.973
102.363
104.001
105.019
105.444
105.165
104.271
102.988
101.452
99.791
98.055
96.185
94.18
92.078
89.876
87.539
85.036
82.329
79.399
76.259
72.906
69.323
65.499
61.427
57.109
52.563
47.812
42.877
37.78
32.554
27.227
21.824
16.374
10.897
5.414
-0.049
-5.469
-10.821
-16.08
-21.223
-26.228
-31.075
-35.744
-40.223
-44.495
-48.552
-52.383
-55.976
-59.321
-62.41
-65.236
-67.791
-70.073
-72.076
-73.802
-75.251
-76.427
-77.336
-77.985
-78.381
-78.534
-78.453
-78.15
-77.636
-76.925
-76.028
-74.961
-73.736
-72.37
-70.878
-69.274
-67.573
-65.79
-63.94
-62.038
-60.096
-58.13
-56.151
-54.172
-52.207
-50.265
-48.359
-46.498
-44.691
-42.946
-41.272
-39.672
-38.153
-36.719
-35.371
-34.112
-32.941
-31.86
-30.867
-29.959
-29.135
-28.392
-27.725
-27.13
-26.603
-26.139
-25.732
-25.377
-25.069
-24.803
-24.572
-24.372
-24.197
-24.041
-23.9
-23.768
-23.639
-23.509
-23.373
-23.226
-23.064
-22.883
-22.679
-22.449
-22.19
-21.899
-21.574
-21.214
-20.817
-20.382
-19.91
-19.399
-18.852
-18.267
-17.648
-16.995
-16.31
-15.594
-14.851
-14.081
-13.288
-12.473
-11.639
-10.788
-9.923
-9.046
-8.159
-7.265
-6.367
-5.467
-4.568
-3.671
-2.781
-1.897
-1.024
-0.163
0.683
1.513
2.325
3.117
3.888
4.637
5.362
6.064
6.741
7.394
8.022
8.627
9.208
9.767
10.303
10.818
11.313
11.788
12.245
12.686
13.111
13.522
13.921
14.308
14.686
15.057
15.42
15.779
16.133
16.486
16.838
17.191
17.545
17.904
18.267
18.635
19.011
19.394
19.784
20.183
20.59
21.004
21.427
21.856
22.291
22.732
23.176
23.623
24.071
24.518
24.962
25.401
25.832
26.252
26.659
27.05
27.421
27.772
28.097
28.396
28.664
28.898
29.097
29.257
29.374
29.447
29.473
29.449
29.373
29.243
29.057
28.815
28.514
28.155
27.736
27.258
26.721
26.126
25.474
24.766
24.004
23.191
22.331
21.427
20.483
19.505
18.497
17.465
16.416
15.354
14.286
13.219
12.16
11.114
10.09
9.094
8.133
7.216
6.348
5.538
4.792
4.116
3.517
3
2.571
2.235
1.997
1.86
1.828
1.904
2.09
2.386
2.793
3.309
3.932
4.657
5.48
6.395
7.392
8.463
9.597
10.784
12.011
13.265
14.535
15.806
17.066
18.302
19.501
20.647
21.728
22.726
23.627
24.416
25.077
25.598
25.965
26.168
26.196
26.044
25.703
25.164
24.412
23.435
22.224
20.778
19.096
17.185
15.059
12.737
10.253
7.639
4.93
2.154
-0.668
-3.511
-6.35
-9.147
-11.853
-14.427
-16.835
-19.055
-21.071
-22.878
-24.491
-25.956
-27.354
-28.763
-30.246
-31.857
-33.645
-35.672
-38.018
-40.771
-43.998
-47.774
-52.205
-57.317
-63.074
-69.336
-75.776
-82.023
-87.733
-92.492
-95.848
-97.54
-97.438
-95.69
-92.907
-89.691
-86.532
-84.012
-82.647
-82.701
-84.196
-86.557
-88.316
-87.824
-83.492
-73.413
-55.628
-28.416
9.827
59.229
117.742
182.873
251.745
322.711
395.823
469.432
539.947
599.341
636.632
643.891
615.917
554.342
465.752
355.137
229.97
98.035
-31.594
-144.382
-229.045
-279.599
-296
-287.279
-262.96
-231.112
-199.498
-170.783
-147.055
-129.406
-114.693
-101.558
-89.285
-77.919
-70.505
-68.488
-71.789
-79.226
-88.183
-96.736
-103.41
-107.429
-108.925
-108.037
-105.151
-100.937
-95.855
-90.539
-85.862
-82.255
-79.888
-78.798
-78.708
-79.324
-80.409
-81.606
-82.534
-82.986
-82.849
-82.094
-80.793
-78.983
-76.691
-73.983
-70.921
-67.553
-63.914
-60.017
-55.879
-51.536
-47.038
-42.442
-37.787
-33.091
-28.367
-23.616
-18.84
-14.037
-9.194
-4.292
0.681
5.731
10.864
16.081
21.392
26.808
32.338
37.991
43.773
49.686
55.728
61.897
68.184
74.58
81.071
87.642
94.277
100.963
107.683
114.419
121.152
127.862
134.525
141.12
147.62
154
160.232
166.29
172.145
177.771
183.141
188.228
193.006
197.45
201.536
205.242
208.546
211.427
213.867
215.851
217.365
218.395
218.934
218.972
218.507
217.537
216.061
214.084
211.611
208.652
205.217
201.321
196.98
192.214
187.044
181.493
175.587
169.354
162.822
156.023
148.987
141.747
134.337
126.789
119.137
111.416
103.657
95.895
88.161
80.487
72.903
65.437
58.117
50.969
44.016
37.282
30.786
24.546
18.579
12.9
7.518
2.446
-2.311
-6.747
-10.859
-14.646
-18.109
-21.252
-24.08
-26.6
-28.819
-30.748
-32.397
-33.779
-34.907
-35.795
-36.457
-36.909
-37.168
-37.249
-37.169
-36.943
-36.589
-36.121
-35.557
-34.91
-34.195
-33.426
-32.618
-31.782
-30.93
-30.075
-29.225
-28.39
-27.579
-26.799
-26.056
-25.356
-24.703
-24.1
-23.551
-23.058
-22.621
-22.242
-21.921
-21.658
-21.451
-21.3
-21.202
-21.156
-21.158
-21.208
-21.301
-21.434
-21.606
-21.813
-22.052
-22.32
-22.615
-22.934
-23.274
-23.632
-24.006
-24.394
-24.793
-25.201
-25.617
-26.04
-26.467
-26.899
-27.334
-27.772
-28.213
-28.655
-29.098
-29.542
-29.987
-30.431
-30.876
-31.32
-31.764
-32.206
-32.648
-33.089
-33.528
-33.965
-34.399
-34.831
-35.259
-35.682
-36.101
-36.516
-36.924
-37.327
-37.724
-38.113
-38.496
-38.871
-39.238
-39.596
-39.945
-40.283
-40.61
-40.926
-41.231
-41.522
-41.801
-42.068
-42.321
-42.561
-42.788
-43.002
-43.202
-43.39
-43.564
-43.726
-43.875
-44.012
-44.139
-44.254
-44.358
-44.453
-44.539
-44.615
-44.682
-44.74
-44.79
-44.831
-44.864
-44.889
-44.905
-44.914
-44.916
-44.91
-44.897
-44.877
-44.851
-44.818
-44.779
-44.734
-44.682
-44.626
-44.564
-44.497
-44.427
-44.353
-44.277
-44.2
-44.121
-44.043
-43.966
-43.89
-43.818
-43.749
-43.687
-43.631
-43.585
-43.549
-43.526
-43.518
-43.527
-43.555
-43.604
-43.676
-43.772
-43.895
-44.047
-44.228
-44.442
-44.689
-44.971
-45.289
-45.644
-46.036
-46.464
-46.929
-47.428
-47.962
-48.527
-49.122
-49.744
-50.391
-51.06
-51.747
-52.448
-53.159
-53.876
-54.593
-55.304
-56.003
-56.684
-57.339
-57.963
-58.548
-59.088
-59.575
-60.002
-60.362
-60.648
-60.852
-60.968
-60.989
-60.908
-60.719
-60.418
-60
-59.463
-58.803
-58.018
-57.109
-56.075
-54.917
-53.637
-52.239
-50.724
-49.099
-47.369
-45.54
-43.621
-41.621
-39.552
-37.425
-35.256
-33.059
-30.849
-28.643
-26.455
-24.305
-22.207
-20.177
-18.228
-16.378
-14.64
-13.034
-11.576
-10.279
-9.158
-8.226
-7.492
-6.97
-6.665
-6.577
-6.709
-7.063
-7.645
-8.471
-9.55
-10.884
-12.473
-14.309
-16.383
-18.683
-21.185
-23.848
-26.631
-29.494
-32.402
-35.332
-38.256
-41.134
-43.916
-46.541
-48.957
-51.13
-53.031
-54.639
-55.951
-56.976
-57.752
-58.347
-58.845
-59.329
-59.885
-60.592
-61.532
-62.781
-64.454
-66.708
-69.626
-73.212
-77.354
-81.781
-86.226
-90.449
-94.1
-96.755
-98.098
-97.957
-96.568
-94.59
-92.664
-91.353
-91.148
-92.385
-95.27
-99.705
-104.764
-108.812
-109.972
-106.203
-95.69
-76.958
-48.63
-9.615
40.035
99.228
166.256
237.544
309.131
378.272
441.079
495.002
538.16
564.611
569.769
551.018
507.61
445.125
369.46
282.364
182.414
68.958
-53.824
-172.922
-267.566
-323.591
-335.896
-310.211
-265.251
-216.974
-177.382
-153.394
-140.909
-134.317
-127.167
-114.029
-96.053
-76.678
-60.286
-50.176
-46.197
-46.737
-49.967
-54.529
-59.692
-64.816
-69.125
-72.044
-73.418
-73.286
-71.714
-68.86
-65.014
-60.665
-56.532
-53.047
-50.257
-48.069
-46.27
-44.69
-43.238
-41.716
-39.831
-37.402
-34.37
-30.76
-26.691
-22.243
-17.44
-12.329
-6.966
-1.405
4.296
10.092
15.958
21.876
27.828
33.803
39.788
45.777
51.774
57.793
63.855
69.972
76.143
82.366
88.635
94.955
101.336
107.79
114.324
120.932
127.612
134.358
141.162
148.003
154.849
161.652
168.373
174.988
181.483
187.856
194.103
200.215
206.188
212.019
217.707
223.256
228.662
233.911
239.007
243.967
248.828
253.655
258.485
263.319
268.149
272.941
277.651
282.238
286.633
290.748
294.508
297.844
300.703
303.057
304.854
306.025
306.484
306.117
304.847
302.642
299.485
295.384
290.371
284.492
277.836
270.532
262.687
254.391
245.721
236.723
227.47
218.051
208.565
199.124
189.824
180.728
171.898
163.385
155.214
147.399
139.915
132.705
125.732
118.981
112.446
106.14
100.067
94.219
88.592
83.179
77.976
72.985
68.203
63.625
59.258
55.114
51.221
47.622
44.343
41.398
38.796
36.534
34.608
33.015
31.743
30.773
30.091
29.68
29.526
29.619
29.942
30.475
31.196
32.08
33.101
34.241
35.478
36.793
38.168
39.585
41.031
42.495
43.965
45.428
46.87
48.278
49.64
50.946
52.184
53.343
54.415
55.392
56.267
57.037
57.697
58.245
58.677
58.994
59.195
59.281
59.254
59.115
58.868
58.517
58.064
57.516
56.877
56.151
55.345
54.463
53.51
52.493
51.415
50.282
49.099
47.87
46.601
45.296
43.96
42.597
41.213
39.812
38.398
36.975
35.548
34.119
32.691
31.268
29.852
28.445
27.049
25.665
24.295
22.939
21.598
20.273
18.964
17.671
16.394
15.135
13.892
12.666
11.458
10.269
9.098
7.948
6.818
5.71
4.625
3.564
2.528
1.518
0.535
-0.419
-1.344
-2.239
-3.104
-3.937
-4.738
-5.508
-6.245
-6.949
-7.621
-8.259
-8.864
-9.436
-9.974
-10.478
-10.949
-11.387
-11.793
-12.168
-12.513
-12.829
-13.119
-13.385
-13.628
-13.852
-14.059
-14.252
-14.436
-14.613
-14.787
-14.962
-15.142
-15.331
-15.533
-15.75
-15.988
-16.247
-16.533
-16.848
-17.195
-17.577
-17.995
-18.452
-18.951
-19.493
-20.079
-20.712
-21.391
-22.117
-22.891
-23.712
-24.579
-25.49
-26.444
-27.439
-28.471
-29.538
-30.634
-31.757
-32.901
-34.06
-35.229
-36.403
-37.575
-38.737
-39.884
-41.009
-42.103
-43.162
-44.175
-45.137
-46.04
-46.876
-47.639
-48.321
-48.916
-49.417
-49.817
-50.11
-50.292
-50.357
-50.3
-50.117
-49.804
-49.36
-48.783
-48.071
-47.225
-46.245
-45.132
-43.89
-42.522
-41.033
-39.427
-37.71
-35.89
-33.976
-31.976
-29.899
-27.758
-25.565
-23.333
-21.079
-18.817
-16.564
-14.336
-12.15
-10.024
-7.973
-6.012
-4.155
-2.416
-0.811
0.643
1.931
3.041
3.959
4.673
5.174
5.451
5.497
5.313
4.898
4.249
3.361
2.219
0.815
-0.851
-2.776
-4.952
-7.368
-10.01
-12.855
-15.859
-18.983
-22.189
-25.443
-28.726
-32.01
-35.253
-38.407
-41.414
-44.221
-46.803
-49.138
-51.207
-53.006
-54.553
-55.887
-57.082
-58.22
-59.372
-60.611
-62.008
-63.647
-65.614
-68.021
-71.017
-74.679
-79.004
-83.892
-89.101
-94.371
-99.464
-104.034
-107.655
-110.04
-111.04
-110.818
-109.964
-109.013
-108.393
-108.589
-109.922
-112.525
-116.376
-120.784
-124.281
-125.363
-122.382
-113.589
-97.673
-73.399
-39.588
4.063
56.89
117.947
184.689
253.034
319.446
379.74
431.074
474.35
509.215
533.868
545.672
536.291
497.735
426.968
322.361
190.8
47.072
-94.195
-214.927
-300.421
-347.159
-355.915
-334.859
-298.191
-256.257
-219.602
-195.234
-181.854
-176.037
-170.824
-159.988
-143.593
-124.763
-108.651
-98.981
-95.857
-97.543
-101.494
-106.066
-110.322
-113.409
-115.033
-115.029
-113.398
-110.542
-106.835
-102.597
-98.436
-95.023
-92.71
-91.619
-91.645
-92.487
-93.891
-95.648
-97.456
-98.981
-100.017
-100.47
-100.323
-99.631
-98.403
-96.615
-94.291
-91.503
-88.34
-84.879
-81.17
-77.245
-73.151
-68.955
-64.706
-60.432
-56.134
-51.796
-47.412
-42.984
-38.522
-34.034
-29.517
-24.957
-20.328
-15.613
-10.795
-5.861
-0.795
4.424
9.809
15.359
21.065
26.909
32.879
38.963
45.151
51.429
57.781
64.188
70.629
77.082
83.528
89.94
96.293
102.558
108.707
114.713
120.55
126.195
131.62
136.798
141.703
146.31
150.595
154.534
158.102
161.279
164.043
166.377
168.265
169.694
170.653
171.131
171.123
170.624
169.634
168.153
166.185
163.736
160.815
157.433
153.603
149.342
144.667
139.598
134.158
128.37
122.262
115.859
109.192
102.289
95.183
87.904
80.484
72.956
65.351
57.702
50.04
42.396
34.8
27.281
19.868
12.587
5.463
-1.481
-8.222
-14.742
-21.022
-27.046
-32.801
-38.273
-43.454
-48.334
-52.908
-57.17
-61.12
-64.755
-68.077
-71.089
-73.796
-76.203
-78.32
-80.153
-81.714
-83.013
-84.063
-84.877
-85.466
-85.847
-86.032
-86.037
-85.876
-85.565
-85.118
-84.55
-83.876
-83.109
-82.264
-81.352
-80.387
-79.381
-78.346
-77.291
-76.227
-75.165
-74.112
-73.077
-72.068
-71.09
-70.151
-69.255
-68.406
-67.609
-66.866
-66.179
-65.551
-64.982
-64.474
-64.027
-63.64
-63.313
-63.045
-62.835
-62.68
-62.579
-62.529
-62.529
-62.575
-62.665
-62.796
-62.966
-63.171
-63.408
-63.676
-63.969
-64.286
-64.623
-64.977
-65.345
-65.723
-66.109
-66.5
-66.894
-67.287
-67.678
-68.065
-68.445
-68.816
-69.177
-69.527
-69.864
-70.186
-70.493
-70.784
-71.06
-71.319
-71.561
-71.788
-72
-72.196
-72.379
-72.548
-72.706
-72.852
-72.989
-73.118
-73.241
-73.36
-73.477
-73.594
-73.713
-73.837
-73.968
-74.107
-74.258
-74.422
-74.601
-74.798
-75.013
-75.248
-75.506
-75.788
-76.094
-76.426
-76.784
-77.17
-77.582
-78.021
-78.487
-78.978
-79.494
-80.034
-80.597
-81.181
-81.784
-82.405
-83.042
-83.693
-84.355
-85.026
-85.704
-86.385
-87.068
-87.749
-88.427
-89.097
-89.759
-90.409
-91.046
-91.667
-92.269
-92.852
-93.412
-93.949
-94.461
-94.945
-95.402
-95.831
-96.23
-96.599
-96.937
-97.246
-97.523
-97.769
-97.984
-98.168
-98.318
-98.436
-98.521
-98.571
-98.586
-98.565
-98.507
-98.41
-98.273
-98.095
-97.872
-97.603
-97.285
-96.915
-96.489
-96.005
-95.46
-94.849
-94.17
-93.418
-92.59
-91.681
-90.688
-89.606
-88.431
-87.159
-85.787
-84.312
-82.729
-81.038
-79.237
-77.323
-75.298
-73.162
-70.916
-68.563
-66.107
-63.55
-60.9
-58.161
-55.342
-52.451
-49.498
-46.495
-43.456
-40.392
-37.321
-34.257
-31.215
-28.214
-25.269
-22.395
-19.608
-16.924
-14.357
-11.926
-9.649
-7.542
-5.62
-3.897
-2.387
-1.102
-0.053
0.759
1.329
1.656
1.734
1.551
1.096
0.368
-0.633
-1.905
-3.436
-5.213
-7.216
-9.407
-11.751
-14.214
-16.761
-19.371
-22.022
-24.673
-27.282
-29.793
-32.149
-34.315
-36.257
-37.938
-39.352
-40.503
-41.424
-42.183
-42.833
-43.419
-43.999
-44.63
-45.387
-46.369
-47.654
-49.352
-51.621
-54.528
-58.056
-62.077
-66.249
-70.182
-73.538
-75.883
-76.749
-75.887
-73.28
-69.321
-64.914
-61.017
-58.414
-57.787
-59.702
-64.342
-71.341
-79.478
-86.601
-90.119
-87.541
-76.707
-55.46
-22.061
24.3
83.549
153.535
229.853
308.184
384.214
454.672
519.245
576.32
621.676
649.651
651.871
621.834
559.302
467.189
350.975
219.877
83.216
-47.075
-154.986
-229.904
-269.148
-276.528
-264.237
-243.485
-217.459
-188.84
-158.937
-128.342
-103.658
-87.74
-78.151
-73.675
-70.013
-65.089
-61.769
-60.871
-62.618
-66.618
-70.092
-71.324
-70.166
-66.644
-61.297
-54.896
-47.927
-40.992
-35.036
-30.694
-28.162
-27.501
-28.549
-30.976
-34.509
-38.744
-43.11
-47.23
-50.905
-54.011
-56.567
-58.569
-59.95
-60.688
-60.771
-60.179
-58.917
-56.979
-54.349
-51.067
-47.206
-42.875
-38.223
-33.353
-28.325
-23.182
-17.938
-12.612
-7.231
-1.808
3.651
9.132
14.629
20.131
25.622
31.107
36.603
42.138
47.759
53.493
59.353
65.341
71.453
77.676
84.002
90.412
96.878
103.379
109.895
116.408
122.904
129.362
135.757
142.063
148.25
154.288
160.152
165.814
171.249
176.433
181.344
185.96
190.265
194.241
197.869
201.133
204.013
206.494
208.561
210.201
211.402
212.155
212.452
212.29
211.666
210.581
209.038
207.042
204.6
201.723
198.42
194.707
190.598
186.11
181.263
176.076
170.572
164.773
158.704
152.391
145.859
139.137
132.251
125.229
118.1
110.891
103.631
96.347
89.067
81.819
74.63
67.524
60.528
53.664
46.956
40.423
34.085
27.959
22.06
16.402
10.997
5.853
0.98
-3.615
-7.93
-11.96
-15.704
-19.162
-22.336
-25.229
-27.845
-30.189
-32.269
-34.093
-35.668
-37.006
-38.116
-39.011
-39.702
-40.202
-40.526
-40.687
-40.699
-40.577
-40.336
-39.99
-39.554
-39.043
-38.47
-37.847
-37.189
-36.506
-35.81
-35.113
-34.422
-33.748
-33.098
-32.481
-31.902
-31.367
-30.882
-30.451
-30.077
-29.763
-29.512
-29.325
-29.204
-29.148
-29.158
-29.231
-29.368
-29.565
-29.82
-30.129
-30.488
-30.893
-31.34
-31.824
-32.338
-32.879
-33.441
-34.018
-34.606
-35.2
-35.795
-36.386
-36.97
-37.542
-38.099
-38.638
-39.156
-39.651
-40.12
-40.562
-40.975
-41.358
-41.711
-42.032
-42.32
-42.576
-42.8
-42.991
-43.151
-43.28
-43.38
-43.451
-43.496
-43.516
-43.513
-43.49
-43.448
-43.39
-43.318
-43.233
-43.139
-43.035
-42.925
-42.81
-42.691
-42.57
-42.446
-42.32
-42.192
-42.063
-41.932
-41.799
-41.662
-41.521
-41.376
-41.225
-41.068
-40.903
-40.73
-40.548
-40.356
-40.153
-39.938
-39.711
-39.471
-39.216
-38.947
-38.664
-38.366
-38.053
-37.724
-37.382
-37.025
-36.655
-36.271
-35.875
-35.467
-35.049
-34.621
-34.185
-33.743
-33.295
-32.843
-32.389
-31.935
-31.482
-31.031
-30.584
-30.141
-29.703
-29.27
-28.842
-28.419
-28
-27.584
-27.171
-26.758
-26.344
-25.925
-25.5
-25.066
-24.619
-24.155
-23.671
-23.163
-22.627
-22.06
-21.457
-20.816
-20.133
-19.404
-18.629
-17.804
-16.928
-15.998
-15.014
-13.976
-12.883
-11.737
-10.539
-9.291
-7.997
-6.664
-5.297
-3.905
-2.495
-1.078
0.338
1.742
3.122
4.471
5.778
7.033
8.225
9.339
10.363
11.286
12.096
12.783
13.337
13.747
14.005
14.112
14.064
13.859
13.489
12.937
12.193
11.253
10.113
8.775
7.241
5.517
3.615
1.565
-0.604
-2.863
-5.187
-7.562
-9.966
-12.364
-14.713
-16.96
-19.057
-20.978
-22.701
-24.204
-25.476
-26.524
-27.376
-28.089
-28.729
-29.358
-30.041
-30.854
-31.887
-33.229
-35.003
-37.373
-40.428
-44.174
-48.519
-53.207
-57.955
-62.51
-66.514
-69.522
-71.245
-71.545
-70.62
-69.166
-67.88
-67.366
-68.289
-71.179
-76.332
-83.801
-92.897
-101.946
-109.007
-111.949
-108.538
-96.699
-74.36
-39.822
7.798
67.363
135.786
209.613
284.94
359.574
433.82
505.673
570.213
618.912
639.365
623.877
571.884
488.675
383.538
262.767
131.54
-3.32
-130.285
-231.866
-296.099
-320.004
-311.334
-287.503
-260.801
-236.703
-215.241
-191.04
-163.045
-134.01
-107.24
-87.083
-74.941
-69.501
-69.238
-72.004
-75.697
-79.034
-80.712
-79.618
-75.514
-68.566
-59.205
-48.344
-36.995
-26.029
-16.426
-8.899
-3.671
-0.825
-0.238
-1.552
-4.424
-8.42
-12.967
-17.674
-22.293
-26.591
-30.465
-33.817
-36.492
-38.434
-39.636
-40.06
-39.7
-38.544
-36.566
-33.806
-30.337
-26.233
-21.604
-16.541
-11.125
-5.465
0.356
6.274
12.219
18.157
24.072
29.933
35.731
41.47
47.152
52.798
58.435
64.072
69.731
75.431
81.183
87.002
92.883
98.802
104.748
110.704
116.659
122.617
128.569
134.502
140.412
146.28
152.091
157.84
163.507
169.077
174.552
179.941
185.275
190.604
195.943
201.289
206.628
211.91
217.084
222.09
226.839
231.263
235.304
238.9
242.017
244.62
246.647
248.036
248.699
248.534
247.479
245.499
242.575
238.735
234.022
228.507
222.304
215.512
208.21
200.476
192.362
183.917
175.214
166.329
157.348
148.381
139.512
130.809
122.34
114.135
106.208
98.552
91.125
83.889
76.833
69.947
63.241
56.733
50.425
44.322
38.435
32.754
27.273
21.992
16.9
12.002
7.312
2.851
-1.347
-5.251
-8.843
-12.112
-15.056
-17.682
-19.993
-22.002
-23.727
-25.184
-26.385
-27.346
-28.075
-28.587
-28.901
-29.036
-29.014
-28.859
-28.591
-28.231
-27.798
-27.308
-26.777
-26.218
-25.641
-25.056
-24.473
-23.903
-23.357
-22.844
-22.373
-21.952
-21.59
-21.293
-21.067
-20.915
-20.841
-20.846
-20.931
-21.097
-21.343
-21.668
-22.07
-22.547
-23.096
-23.714
-24.398
-25.144
-25.947
-26.802
-27.705
-28.651
-29.635
-30.651
-31.695
-32.763
-33.85
-34.953
-36.067
-37.188
-38.313
-39.439
-40.561
-41.676
-42.78
-43.87
-44.943
-45.997
-47.028
-48.035
-49.016
-49.969
-50.892
-51.784
-52.643
-53.469
-54.26
-55.016
-55.735
-56.417
-57.063
-57.673
-58.246
-58.784
-59.288
-59.757
-60.193
-60.597
-60.97
-61.313
-61.627
-61.913
-62.174
-62.41
-62.624
-62.816
-62.988
-63.143
-63.282
-63.408
-63.521
-63.624
-63.72
-63.81
-63.898
-63.984
-64.073
-64.166
-64.265
-64.373
-64.492
-64.624
-64.769
-64.929
-65.106
-65.299
-65.508
-65.734
-65.975
-66.231
-66.501
-66.783
-67.074
-67.372
-67.675
-67.98
-68.285
-68.584
-68.877
-69.157
-69.423
-69.669
-69.891
-70.084
-70.243
-70.363
-70.438
-70.463
-70.431
-70.337
-70.175
-69.939
-69.624
-69.224
-68.735
-68.151
-67.468
-66.684
-65.794
-64.798
-63.693
-62.479
-61.157
-59.726
-58.189
-56.55
-54.81
-52.974
-51.047
-49.033
-46.939
-44.771
-42.538
-40.248
-37.91
-35.538
-33.142
-30.738
-28.338
-25.957
-23.611
-21.315
-19.083
-16.93
-14.867
-12.908
-11.068
-9.363
-7.807
-6.412
-5.192
-4.155
-3.313
-2.677
-2.252
-2.037
-2.035
-2.247
-2.682
-3.354
-4.272
-5.434
-6.839
-8.479
-10.343
-12.421
-14.687
-17.1
-19.621
-22.21
-24.837
-27.487
-30.126
-32.715
-35.202
-37.525
-39.645
-41.54
-43.188
-44.579
-45.718
-46.623
-47.349
-47.981
-48.598
-49.281
-50.104
-51.13
-52.448
-54.13
-56.283
-59.055
-62.491
-66.566
-71.166
-76.031
-80.897
-85.551
-89.648
-92.764
-94.61
-94.997
-94.099
-92.492
-90.646
-88.932
-87.664
-87.062
-87.383
-88.716
-90.39
-91.054
-89.211
-83.317
-72.225
-54.791
-29.458
5.02
49.204
101.954
160.212
221.003
281.722
341.05
400.056
457.839
510.232
550.637
568.548
555.327
509.229
432.986
333.435
220.305
101.597
-13.862
-113.568
-187.161
-229.236
-240.961
-232.649
-216.965
-201.288
-188.075
-175.203
-159.009
-139.602
-119.055
-99.801
-84.291
-73.016
-65.603
-61.471
-59.324
-58.001
-56.755
-54.881
-52.164
-48.629
-43.985
-38.208
-31.687
-24.931
-18.623
-13.452
-9.661
-7.293
-6.476
-7.148
-9.132
-12.188
-15.826
-19.53
-23.008
-26.093
-28.686
-30.761
-32.244
-33.04
-33.125
-32.521
-31.251
-29.338
-26.784
-23.597
-19.834
-15.6
-11.044
-6.295
-1.434
3.492
8.46
13.451
18.432
23.38
28.286
33.149
37.972
42.75
47.469
52.131
56.751
61.364
66.02
70.757
75.593
80.539
85.596
90.76
96.029
101.392
106.827
112.316
117.842
123.394
128.96
134.527
140.075
145.58
151.016
156.357
161.581
166.661
171.575
176.299
180.81
185.091
189.122
192.886
196.363
199.534
202.378
204.878
207.015
208.772
210.134
211.087
211.62
211.724
211.392
210.619
209.404
207.745
205.644
203.107
200.138
196.748
192.945
188.744
184.159
179.207
173.907
168.28
162.348
156.135
149.666
142.968
136.067
128.993
121.772
114.435
107.011
99.53
92.021
84.515
77.04
69.625
62.299
55.089
48.019
41.114
34.396
27.887
21.605
15.568
9.791
4.288
-0.93
-5.854
-10.475
-14.789
-18.792
-22.482
-25.86
-28.928
-31.69
-34.15
-36.315
-38.194
-39.796
-41.131
-42.211
-43.049
-43.657
-44.051
-44.246
-44.256
-44.098
-43.787
-43.339
-42.77
-42.096
-41.331
-40.491
-39.59
-38.641
-37.657
-36.652
-35.636
-34.621
-33.616
-32.629
-31.669
-30.742
-29.856
-29.014
-28.221
-27.482
-26.8
-26.177
-25.614
-25.113
-24.675
-24.299
-23.984
-23.73
-23.535
-23.398
-23.315
-23.286
-23.308
-23.378
-23.495
-23.655
-23.857
-24.098
-24.376
-24.688
-25.032
-25.406
-25.809
-26.239
-26.695
-27.175
-27.679
-28.207
-28.757
-29.33
-29.924
-30.54
-31.177
-31.835
-32.513
-33.212
-33.932
-34.672
-35.433
-36.215
-37.017
-37.84
-38.683
-39.546
-40.427
-41.327
-42.244
-43.178
-44.127
-45.092
-46.07
-47.061
-48.064
-49.079
-50.103
-51.136
-52.177
-53.225
-54.278
-55.336
-56.397
-57.461
-58.527
-59.595
-60.664
-61.734
-62.803
-63.873
-64.942
-66.01
-67.077
-68.143
-69.207
-70.27
-71.333
-72.394
-73.456
-74.517
-75.58
-76.643
-77.707
-78.771
-79.837
-80.902
-81.968
-83.032
-84.094
-85.153
-86.206
-87.253
-88.291
-89.317
-90.329
-91.322
-92.294
-93.241
-94.158
-95.041
-95.886
-96.688
-97.443
-98.146
-98.792
-99.375
-99.89
-100.332
-100.694
-100.971
-101.159
-101.251
-101.243
-101.13
-100.906
-100.569
-100.113
-99.536
-98.835
-98.006
-97.049
-95.962
-94.746
-93.401
-91.929
-90.333
-88.615
-86.781
-84.836
-82.785
-80.635
-78.394
-76.07
-73.672
-71.212
-68.701
-66.151
-63.577
-60.995
-58.42
-55.865
-53.349
-50.887
-48.5
-46.204
-44.015
-41.948
-40.018
-38.241
-36.635
-35.215
-33.991
-32.973
-32.171
-31.593
-31.25
-31.152
-31.296
-31.678
-32.293
-33.139
-34.223
-35.55
-37.113
-38.904
-40.91
-43.121
-45.53
-48.121
-50.863
-53.72
-56.649
-59.61
-62.583
-65.551
-68.499
-71.406
-74.226
-76.901
-79.385
-81.644
-83.657
-85.428
-86.943
-88.168
-89.137
-89.971
-90.874
-92.07
-93.662
-95.592
-97.762
-100.222
-103.05
-106.141
-109.119
-111.427
-112.642
-112.75
-112.011
-110.421
-107.79
-104.139
-99.842
-95.745
-92.869
-91.666
-92.1
-94.329
-98.571
-104.865
-112.954
-121.729
-129.303
-133.956
-134.15
-128.183
-114.368
-90.961
-56.451
-10.11
46.963
111.999
182.017
253.564
324.356
394.603
462.91
524.988
574.4
600.697
594.674
554.064
480.244
378.489
258.07
127.264
-3.037
-117.182
-202.592
-252.655
-268.502
-261.812
-246.353
-229.792
-215.142
-200.236
-180.919
-157.627
-133.011
-110.059
-92.447
-81.622
-76.862
-77.147
-80.956
-86.552
-92.986
-99.509
-104.984
-108.597
-110.051
-109.27
-106.638
-102.884
-98.468
-93.834
-89.674
-86.424
-84.284
-83.343
-83.396
-84.113
-85.249
-86.486
-87.462
-87.967
-87.878
-87.138
-85.796
-83.893
-81.458
-78.557
-75.259
-71.608
-67.639
-63.372
-58.822
-54.031
-49.055
-43.955
-38.778
-33.547
-28.279
-22.985
-17.668
-12.332
-6.97
-1.565
3.89
9.398
14.957
20.563
26.218
31.928
37.697
43.53
49.428
55.39
61.409
67.48
73.593
79.734
85.89
92.04
98.171
104.265
110.308
116.284
122.174
127.96
133.623
139.144
144.503
149.677
154.646
159.387
163.88
168.103
172.038
175.664
178.962
181.917
184.51
186.728
188.556
189.982
190.995
191.586
191.749
191.477
190.767
189.619
188.032
186.011
183.56
180.686
177.4
173.713
169.637
165.19
160.388
155.25
149.798
144.053
138.039
131.782
125.308
118.644
111.818
104.858
97.793
90.653
83.465
76.258
69.06
61.898
54.799
47.79
40.893
34.134
27.535
21.116
14.898
8.897
3.131
-2.388
-7.645
-12.631
-17.336
-21.754
-25.879
-29.709
-33.241
-36.476
-39.417
-42.066
-44.43
-46.514
-48.327
-49.878
-51.178
-52.239
-53.071
-53.689
-54.106
-54.335
-54.392
-54.292
-54.048
-53.675
-53.189
-52.605
-51.935
-51.196
-50.4
-49.56
-48.689
-47.798
-46.899
-46.002
-45.117
-44.252
-43.415
-42.613
-41.851
-41.136
-40.471
-39.86
-39.304
-38.806
-38.367
-37.986
-37.663
-37.397
-37.185
-37.027
-36.918
-36.857
-36.839
-36.862
-36.923
-37.016
-37.139
-37.288
-37.459
-37.648
-37.851
-38.065
-38.286
-38.513
-38.741
-38.969
-39.193
-39.413
-39.627
-39.833
-40.03
-40.219
-40.397
-40.567
-40.728
-40.88
-41.026
-41.166
-41.303
-41.437
-41.571
-41.707
-41.846
-41.991
-42.143
-42.304
-42.475
-42.658
-42.854
-43.064
-43.288
-43.528
-43.783
-44.054
-44.341
-44.641
-44.956
-45.282
-45.62
-45.966
-46.32
-46.678
-47.039
-47.4
-47.757
-48.108
-48.448
-48.776
-49.085
-49.374
-49.637
-49.87
-50.071
-50.234
-50.357
-50.436
-50.468
-50.451
-50.383
-50.26
-50.083
-49.85
-49.56
-49.213
-48.81
-48.351
-47.838
-47.274
-46.659
-45.998
-45.292
-44.547
-43.765
-42.952
-42.11
-41.246
-40.363
-39.469
-38.568
-37.666
-36.769
-35.885
-35.019
-34.177
-33.366
-32.592
-31.861
-31.178
-30.547
-29.975
-29.465
-29.02
-28.643
-28.338
-28.104
-27.944
-27.857
-27.841
-27.896
-28.019
-28.206
-28.454
-28.758
-29.112
-29.512
-29.951
-30.423
-30.919
-31.432
-31.953
-32.474
-32.985
-33.476
-33.937
-34.357
-34.727
-35.034
-35.27
-35.423
-35.484
-35.443
-35.29
-35.017
-34.617
-34.08
-33.402
-32.576
-31.598
-30.467
-29.179
-27.735
-26.135
-24.381
-22.477
-20.427
-18.238
-15.915
-13.467
-10.903
-8.233
-5.468
-2.623
0.29
3.255
6.254
9.268
12.277
15.263
18.204
21.08
23.87
26.553
29.112
31.528
33.783
35.86
37.737
39.399
40.829
42.014
42.942
43.603
43.987
44.089
43.913
43.458
42.726
41.714
40.41
38.811
36.921
34.747
32.301
29.599
26.658
23.51
20.199
16.766
13.255
9.698
6.116
2.544
-0.973
-4.383
-7.62
-10.633
-13.393
-15.861
-18.015
-19.852
-21.379
-22.636
-23.693
-24.602
-25.421
-26.211
-27.023
-27.939
-29.035
-30.405
-32.194
-34.474
-37.236
-40.392
-43.689
-46.808
-49.474
-51.317
-51.872
-50.892
-48.307
-44.33
-39.677
-35.137
-31.366
-29.069
-28.856
-30.971
-35.301
-41.096
-46.664
-49.905
-48.732
-41.019
-24.642
2.157
40.564
91.162
152.487
220.999
293.249
365.323
434.243
499.831
560.163
610.651
645.515
656.188
635.865
583.924
502.816
397.645
276.826
148.731
23.507
-85.01
-165.342
-211.263
-221.767
-204.454
-171.516
-133.409
-100.523
-78.532
-66.315
-61.298
-57.578
-50.262
-39.847
-28.487
-19.988
-17.264
-19.975
-26.247
-33.749
-40.692
-45.912
-49.011
-50.114
-49.247
-46.687
-42.95
-38.373
-33.491
-29.107
-25.629
-23.228
-21.973
-21.655
-22.041
-22.967
-24.138
-25.171
-25.845
-26.035
-25.691
-24.878
-23.625
-21.936
-19.856
-17.445
-14.749
-11.805
-8.631
-5.225
-1.611
2.17
6.073
10.048
14.065
18.113
22.181
26.268
30.374
34.504
38.672
42.895
47.182
51.543
55.983
60.507
65.123
69.84
74.666
79.608
84.671
89.854
95.154
100.564
106.077
111.68
117.36
123.099
128.883
134.693
140.511
146.319
152.096
157.82
163.469
169.019
174.446
179.724
184.828
189.732
194.41
198.838
202.988
206.838
210.363
213.542
216.353
218.777
220.795
222.392
223.552
224.264
224.517
224.303
223.618
222.457
220.821
218.712
216.135
213.097
209.611
205.687
201.342
196.594
191.461
185.966
180.133
173.985
167.551
160.858
153.936
146.816
139.529
132.106
124.581
116.984
109.349
101.707
94.089
86.524
79.043
71.672
64.439
57.368
50.484
43.808
37.36
31.159
25.22
19.556
14.18
9.1
4.323
-0.146
-4.304
-8.151
-11.689
-14.92
-17.849
-20.483
-22.831
-24.901
-26.707
-28.259
-29.572
-30.66
-31.539
-32.225
-32.734
-33.083
-33.288
-33.367
-33.336
-33.212
-33.011
-32.748
-32.439
-32.099
-31.742
-31.379
-31.024
-30.687
-30.378
-30.107
-29.879
-29.704
-29.585
-29.528
-29.536
-29.613
-29.759
-29.976
-30.264
-30.621
-31.046
-31.535
-32.087
-32.696
-33.358
-34.069
-34.824
-35.616
-36.44
-37.291
-38.163
-39.05
-39.946
-40.846
-41.745
-42.637
-43.517
-44.381
-45.225
-46.045
-46.837
-47.6
-48.329
-49.024
-49.683
-50.304
-50.886
-51.429
-51.933
-52.399
-52.826
-53.217
-53.572
-53.894
-54.185
-54.449
-54.687
-54.903
-55.1
-55.282
-55.453
-55.615
-55.772
-55.928
-56.087
-56.251
-56.424
-56.609
-56.808
-57.025
-57.262
-57.52
-57.802
-58.11
-58.445
-58.809
-59.201
-59.624
-60.078
-60.563
-61.079
-61.626
-62.204
-62.813
-63.45
-64.115
-64.807
-65.522
-66.259
-67.016
-67.79
-68.578
-69.377
-70.185
-70.998
-71.814
-72.63
-73.443
-74.25
-75.048
-75.836
-76.611
-77.371
-78.114
-78.837
-79.541
-80.222
-80.881
-81.517
-82.128
-82.714
-83.274
-83.808
-84.317
-84.799
-85.256
-85.687
-86.094
-86.478
-86.84
-87.182
-87.505
-87.812
-88.104
-88.384
-88.653
-88.914
-89.17
-89.421
-89.67
-89.92
-90.17
-90.424
-90.682
-90.946
-91.215
-91.49
-91.771
-92.057
-92.348
-92.642
-92.938
-93.234
-93.529
-93.821
-94.108
-94.387
-94.657
-94.914
-95.155
-95.377
-95.577
-95.751
-95.894
-96.001
-96.07
-96.096
-96.075
-96.001
-95.872
-95.682
-95.428
-95.106
-94.711
-94.241
-93.693
-93.063
-92.349
-91.551
-90.669
-89.701
-88.649
-87.514
-86.298
-85.004
-83.634
-82.192
-80.68
-79.105
-77.471
-75.782
-74.047
-72.271
-70.463
-68.635
-66.796
-64.957
-63.13
-61.327
-59.56
-57.84
-56.179
-54.586
-53.071
-51.642
-50.313
-49.094
-47.997
-47.029
-46.199
-45.513
-44.978
-44.598
-44.375
-44.303
-44.381
-44.607
-44.989
-45.539
-46.265
-47.168
-48.247
-49.496
-50.908
-52.474
-54.17
-55.959
-57.803
-59.668
-61.526
-63.359
-65.142
-66.834
-68.385
-69.737
-70.84
-71.664
-72.19
-72.395
-72.28
-71.854
-71.153
-70.264
-69.283
-68.3
-67.415
-66.718
-66.292
-66.266
-66.818
-68.069
-70.079
-72.791
-75.972
-79.377
-82.784
-85.858
-88.192
-89.464
-89.438
-88.23
-86.463
-84.782
-83.796
-84.198
-86.446
-90.772
-97.247
-105.205
-113.033
-118.916
-120.717
-116.019
-102.961
-79.884
-45.151
1.879
60.603
129.997
207.062
286.788
365.031
437.302
500.501
555.224
600.334
631.921
644.978
631.429
584.94
506.244
398.737
268.253
125.33
-19.597
-153.934
-261.217
-330.523
-358.557
-348.075
-310.696
-260.23
-206.672
-159.194
-122.702
-97.038
-80.786
-69.407
-58.784
-48.224
-38.645
-33.07
-33.322
-38.313
-45.882
-52.791
-56.65
-56.955
-53.844
-47.879
-39.857
-30.514
-20.674
-11.413
-3.731
1.869
5.23
6.436
5.792
3.639
0.345
-3.587
-7.643
-11.487
-14.935
-17.899
-20.368
-22.294
-23.589
-24.215
-24.167
-23.44
-22.04
-19.969
-17.229
-13.857
-9.941
-5.582
-0.885
4.047
9.154
14.39
19.709
25.077
30.456
35.816
41.146
46.445
51.71
56.94
62.137
67.306
72.473
77.666
82.917
88.256
93.7
99.252
104.916
110.687
116.556
122.512
128.534
134.598
140.681
146.762
152.82
158.834
164.779
170.625
176.343
181.902
187.275
192.434
197.352
202.003
206.364
210.413
214.129
217.495
220.492
223.103
225.309
227.095
228.445
229.346
229.788
229.759
229.253
228.266
226.795
224.843
222.411
219.507
216.138
212.314
208.049
203.356
198.253
192.757
186.891
180.674
174.132
167.29
160.174
152.812
145.232
137.463
129.534
121.474
113.312
105.079
96.802
88.51
80.231
71.994
63.825
55.751
47.795
39.983
32.335
24.874
17.618
10.584
3.789
-2.755
-9.034
-15.039
-20.76
-26.19
-31.324
-36.158
-40.689
-44.918
-48.845
-52.473
-55.804
-58.845
-61.599
-64.075
-66.279
-68.221
-69.908
-71.35
-72.557
-73.54
-74.309
-74.876
-75.253
-75.45
-75.479
-75.353
-75.082
-74.678
-74.153
-73.517
-72.781
-71.955
-71.049
-70.073
-69.036
-67.947
-66.813
-65.643
-64.443
-63.22
-61.98
-60.728
-59.469
-58.208
-56.948
-55.694
-54.45
-53.217
-51.998
-50.797
-49.615
-48.454
-47.315
-46.199
-45.107
-44.041
-43
-41.984
-40.995
-40.03
-39.091
-38.177
-37.287
-36.42
-35.577
-34.755
-33.955
-33.177
-32.418
-31.68
-30.96
-30.26
-29.579
-28.917
-28.274
-27.65
-27.045
-26.46
-25.895
-25.351
-24.828
-24.326
-23.847
-23.39
-22.957
-22.548
-22.165
-21.807
-21.477
-21.174
-20.901
-20.657
-20.445
-20.264
-20.116
-20.001
-19.921
-19.876
-19.867
-19.894
-19.957
-20.056
-20.191
-20.363
-20.57
-20.812
-21.088
-21.397
-21.738
-22.11
-22.51
-22.939
-23.394
-23.873
-24.375
-24.898
-25.441
-26.001
-26.576
-27.166
-27.767
-28.378
-28.996
-29.62
-30.247
-30.875
-31.503
-32.129
-32.751
-33.366
-33.975
-34.574
-35.163
-35.74
-36.304
-36.854
-37.388
-37.906
-38.407
-38.89
-39.353
-39.796
-40.219
-40.618
-40.994
-41.345
-41.67
-41.965
-42.231
-42.464
-42.663
-42.826
-42.95
-43.034
-43.074
-43.069
-43.015
-42.91
-42.75
-42.533
-42.255
-41.912
-41.502
-41.022
-40.468
-39.837
-39.126
-38.332
-37.453
-36.486
-35.428
-34.278
-33.034
-31.695
-30.26
-28.731
-27.107
-25.39
-23.583
-21.689
-19.711
-17.654
-15.522
-13.323
-11.061
-8.744
-6.381
-3.98
-1.552
0.893
3.342
5.782
8.197
10.575
12.901
15.158
17.333
19.411
21.378
23.222
24.93
26.488
27.881
29.095
30.119
30.942
31.554
31.946
32.11
32.039
31.737
31.202
30.435
29.432
28.183
26.682
24.933
22.938
20.708
18.255
15.592
12.743
9.745
6.635
3.449
0.222
-3.027
-6.27
-9.47
-12.58
-15.548
-18.323
-20.882
-23.203
-25.267
-27.069
-28.617
-29.944
-31.109
-32.183
-33.23
-34.317
-35.507
-36.88
-38.509
-40.493
-42.965
-45.994
-49.578
-53.639
-57.979
-62.377
-66.643
-70.484
-73.528
-75.532
-76.347
-76.048
-75.086
-73.869
-72.741
-72.143
-72.379
-73.586
-75.821
-78.667
-81.048
-81.81
-79.572
-72.794
-60.307
-40.818
-13.041
23.633
69.325
122.934
181.486
241.909
301.24
357.777
412.816
466.101
514.141
549.739
561.456
541.189
487.569
405.702
304.614
191.096
71.201
-48.632
-158.548
-243.559
-294.871
-312.554
-303.696
-282.522
-257.49
-228.802
-197.111
-162.678
-129.362
-105.88
-94.96
-93.712
-98.239
-101.917
-102.037
-100.931
-99.275
-98.018
-97.316
-94.775
-89.584
-82.249
-73.234
-63.849
-55.367
-48.156
-42.49
-38.709
-36.731
-36.378
-37.453
-39.453
-41.825
-44.251
-46.465
-48.286
-49.682
-50.598
-50.99
-50.875
-50.269
-49.17
-47.557
-45.395
-42.668
-39.401
-35.66
-31.551
-27.174
-22.612
-17.952
-13.245
-8.523
-3.813
0.889
5.59
10.293
15.001
19.705
24.389
29.055
33.711
38.379
43.097
47.896
52.801
57.841
63.031
68.378
73.883
79.537
85.318
91.212
97.204
103.279
109.428
115.636
121.884
128.151
134.415
140.65
146.831
152.928
158.913
164.758
170.436
175.921
181.191
186.22
190.984
195.459
199.62
203.444
206.908
209.99
212.668
214.924
216.741
218.103
219
219.42
219.356
218.803
217.757
216.22
214.192
211.68
208.689
205.231
201.317
196.961
192.18
186.994
181.422
175.488
169.216
162.633
155.765
148.643
141.295
133.753
126.047
118.209
110.271
102.265
94.222
86.174
78.152
70.185
62.304
54.535
46.906
39.442
32.165
25.099
18.262
11.673
5.347
-0.701
-6.461
-11.921
-17.074
-21.913
-26.436
-30.639
-34.522
-38.086
-41.335
-44.272
-46.904
-49.239
-51.284
-53.05
-54.548
-55.788
-56.784
-57.548
-58.094
-58.436
-58.589
-58.568
-58.386
-58.06
-57.603
-57.031
-56.357
-55.595
-54.758
-53.859
-52.91
-51.922
-50.905
-49.869
-48.824
-47.777
-46.737
-45.71
-44.702
-43.721
-42.769
-41.852
-40.973
-40.136
-39.344
-38.598
-37.901
-37.254
-36.659
-36.116
-35.626
-35.19
-34.807
-34.477
-34.199
-33.974
-33.798
-33.673
-33.596
-33.566
-33.582
-33.643
-33.747
-33.894
-34.082
-34.31
-34.576
-34.88
-35.219
-35.594
-36.001
-36.441
-36.911
-37.411
-37.938
-38.492
-39.07
-39.671
-40.292
-40.932
-41.587
-42.256
-42.935
-43.623
-44.317
-45.014
-45.711
-46.407
-47.099
-47.785
-48.461
-49.127
-49.779
-50.416
-51.035
-51.636
-52.216
-52.774
-53.309
-53.819
-54.305
-54.764
-55.198
-55.606
-55.986
-56.341
-56.67
-56.974
-57.254
-57.511
-57.748
-57.965
-58.166
-58.352
-58.525
-58.69
-58.848
-59.002
-59.156
-59.312
-59.473
-59.644
-59.826
-60.022
-60.236
-60.47
-60.726
-61.007
-61.315
-61.65
-62.015
-62.411
-62.837
-63.295
-63.785
-64.306
-64.857
-65.436
-66.043
-66.675
-67.329
-68.003
-68.693
-69.394
-70.104
-70.817
-71.528
-72.233
-72.925
-73.598
-74.246
-74.863
-75.441
-75.973
-76.452
-76.871
-77.224
-77.503
-77.702
-77.814
-77.833
-77.753
-77.57
-77.278
-76.873
-76.352
-75.71
-74.945
-74.058
-73.047
-71.911
-70.654
-69.275
-67.779
-66.169
-64.45
-62.628
-60.71
-58.702
-56.615
-54.458
-52.243
-49.981
-47.686
-45.374
-43.06
-40.763
-38.499
-36.286
-34.142
-32.085
-30.133
-28.303
-26.61
-25.069
-23.696
-22.508
-21.52
-20.746
-20.2
-19.892
-19.833
-20.032
-20.495
-21.221
-22.21
-23.46
-24.972
-26.755
-28.813
-31.145
-33.745
-36.603
-39.704
-43.028
-46.549
-50.221
-54.002
-57.85
-61.728
-65.612
-69.476
-73.279
-76.979
-80.522
-83.852
-86.94
-89.756
-92.266
-94.464
-96.361
-97.994
-99.44
-100.764
-102.015
-103.251
-104.522
-105.894
-107.455
-109.27
-111.426
-114.046
-117.184
-120.836
-124.9
-129.088
-133.041
-136.418
-138.802
-139.758
-139.006
-136.435
-132.302
-127.319
-122.33
-118.112
-115.313
-114.457
-115.833
-119.314
-124.029
-128.283
-129.819
-126.339
-115.938
-96.742
-67.071
-25.926
27.077
90.464
160.298
232.448
303.021
369.225
431.571
489.757
540.041
576.582
589.908
570.854
517.062
430.561
316.97
186.963
51.115
-79.216
-189.525
-268.758
-312.229
-320.023
-299.385
-262.645
-219.045
-178.049
-148.754
-132.04
-127.006
-128.991
-128.247
-121.514
-109.191
-93.68
-80.975
-73.306
-69.76
-69.402
-70.141
-70.714
-71.063
-70.76
-69.605
-67.771
-65.29
-62.188
-58.646
-54.893
-51.285
-48.384
-46.492
-45.536
-45.361
-45.74
-46.447
-47.364
-48.302
-48.958
-49.149
-48.806
-47.92
-46.565
-44.779
-42.521
-39.769
-36.549
-32.913
-28.955
-24.754
-20.355
-15.807
-11.152
-6.429
-1.678
3.089
7.886
12.731
17.644
22.633
27.683
32.775
37.903
43.076
48.32
53.656
59.096
64.649
70.326
76.138
82.093
88.186
94.396
100.699
107.075
113.505
119.976
126.474
132.979
139.468
145.919
152.308
158.611
164.802
170.854
176.736
182.419
187.876
193.085
198.023
202.665
206.989
210.971
214.59
217.828
220.665
223.084
225.066
226.599
227.671
228.273
228.399
228.043
227.203
225.882
224.081
221.808
219.07
215.878
212.245
208.185
203.717
198.858
193.63
188.056
182.16
175.967
169.505
162.803
155.89
148.794
141.548
134.181
126.724
119.207
111.66
104.113
96.594
89.132
81.754
74.486
67.353
60.378
53.581
46.983
40.601
34.451
28.546
22.898
17.516
12.41
7.584
3.043
-1.211
-5.176
-8.853
-12.246
-15.357
-18.193
-20.76
-23.067
-25.121
-26.933
-28.513
-29.874
-31.026
-31.983
-32.757
-33.361
-33.81
-34.116
-34.293
-34.355
-34.315
-34.184
-33.976
-33.702
-33.373
-32.999
-32.589
-32.152
-31.697
-31.231
-30.76
-30.29
-29.828
-29.376
-28.94
-28.523
-28.127
-27.754
-27.407
-27.086
-26.792
-26.527
-26.289
-26.079
-25.897
-25.742
-25.613
-25.509
-25.429
-25.37
-25.332
-25.313
-25.311
-25.324
-25.351
-25.391
-25.442
-25.503
-25.574
-25.654
-25.742
-25.837
-25.941
-26.051
-26.17
-26.295
-26.429
-26.572
-26.724
-26.885
-27.057
-27.239
-27.433
-27.639
-27.857
-28.088
-28.332
-28.588
-28.859
-29.143
-29.442
-29.755
-30.084
-30.428
-30.788
-31.166
-31.56
-31.972
-32.401
-32.849
-33.314
-33.797
-34.298
-34.817
-35.353
-35.907
-36.477
-37.063
-37.663
-38.278
-38.907
-39.547
-40.198
-40.86
-41.53
-42.208
-42.893
-43.584
-44.28
-44.979
-45.681
-46.385
-47.088
-47.79
-48.489
-49.184
-49.871
-50.55
-51.218
-51.873
-52.514
-53.138
-53.742
-54.326
-54.887
-55.423
-55.933
-56.415
-56.867
-57.29
-57.682
-58.043
-58.372
-58.669
-58.935
-59.169
-59.373
-59.546
-59.691
-59.807
-59.895
-59.959
-59.998
-60.015
-60.012
-59.99
-59.954
-59.905
-59.847
-59.783
-59.716
-59.651
-59.59
-59.537
-59.496
-59.47
-59.463
-59.478
-59.517
-59.583
-59.678
-59.803
-59.96
-60.149
-60.369
-60.621
-60.903
-61.213
-61.55
-61.911
-62.293
-62.691
-63.102
-63.52
-63.941
-64.36
-64.769
-65.162
-65.534
-65.875
-66.18
-66.44
-66.646
-66.791
-66.866
-66.863
-66.773
-66.587
-66.3
-65.902
-65.388
-64.751
-63.987
-63.09
-62.058
-60.888
-59.578
-58.129
-56.541
-54.816
-52.959
-50.973
-48.866
-46.645
-44.319
-41.9
-39.401
-36.834
-34.215
-31.557
-28.879
-26.197
-23.527
-20.888
-18.296
-15.77
-13.33
-10.994
-8.785
-6.721
-4.824
-3.111
-1.601
-0.311
0.746
1.559
2.12
2.42
2.449
2.193
1.641
0.79
-0.363
-1.815
-3.556
-5.574
-7.843
-10.329
-12.998
-15.815
-18.753
-21.789
-24.898
-28.051
-31.211
-34.331
-37.371
-40.295
-43.07
-45.669
-48.081
-50.31
-52.388
-54.382
-56.346
-58.322
-60.353
-62.471
-64.727
-67.181
-69.9
-72.937
-76.359
-80.269
-84.71
-89.672
-95.035
-100.509
-105.76
-110.455
-114.197
-116.565
-117.271
-116.154
-113.354
-109.455
-105.049
-100.707
-97.101
-94.745
-93.986
-94.96
-97.1
-99.062
-99.358
-96.196
-87.528
-71.614
-46.745
-11.389
34.937
91.762
158.203
231.296
306.434
379.518
445.411
501.339
548.248
584.059
606.517
611.596
589.704
536.873
452.37
337.047
201.667
58.249
-79.797
-194.373
-274.014
-314.306
-315.986
-289.463
-248.41
-203.597
-165.976
-141.264
-127.877
-122.622
-118.58
-109.874
-96.621
-81.233
-68.051
-60.326
-57.965
-59.426
-62.538
-65.854
-68.577
-70.077
-70.274
-69.183
-66.897
-63.736
-59.901
-55.567
-51.227
-47.476
-44.642
-42.831
-41.921
-41.63
-41.736
-42.071
-42.391
-42.405
-41.927
-40.872
-39.236
-37.1
-34.529
-31.553
-28.219
-24.58
-20.68
-16.556
-12.244
-7.769
-3.167
1.516
6.25
11.012
15.79
20.586
25.404
30.256
35.158
40.131
45.187
50.335
55.58
60.925
66.38
71.952
77.645
83.466
89.416
95.496
101.702
108.027
114.462
120.991
127.598
134.265
140.974
147.707
154.445
161.169
167.857
174.486
181.036
187.481
193.796
199.956
205.933
211.701
217.232
222.502
227.483
232.153
236.485
240.458
244.05
247.241
250.013
252.348
254.232
255.652
256.598
257.062
257.037
256.52
255.51
254.008
252.02
249.551
246.611
243.21
239.363
235.085
230.394
225.31
219.855
214.052
207.926
201.505
194.816
187.889
180.753
173.439
165.979
158.405
150.746
143.035
135.303
127.58
119.896
112.278
104.755
97.354
90.098
83.012
76.117
69.433
62.979
56.77
50.821
45.145
39.751
34.65
29.847
25.347
21.153
17.267
13.686
10.41
7.434
4.752
2.358
0.243
-1.603
-3.191
-4.531
-5.637
-6.523
-7.201
-7.688
-7.997
-8.145
-8.145
-8.015
-7.769
-7.422
-6.99
-6.486
-5.925
-5.319
-4.683
-4.028
-3.365
-2.706
-2.06
-1.437
-0.844
-0.29
0.219
0.678
1.082
1.426
1.707
1.923
2.072
2.153
2.166
2.111
1.989
1.801
1.551
1.239
0.87
0.446
-0.029
-0.55
-1.115
-1.718
-2.355
-3.023
-3.717
-4.432
-5.165
-5.911
-6.666
-7.428
-8.191
-8.955
-9.714
-10.468
-11.213
-11.948
-12.672
-13.382
-14.078
-14.759
-15.424
-16.074
-16.708
-17.326
-17.93
-18.519
-19.095
-19.658
-20.212
-20.756
-21.293
-21.825
-22.352
-22.878
-23.404
-23.932
-24.463
-25
-25.543
-26.095
-26.657
-27.229
-27.814
-28.41
-29.019
-29.642
-30.276
-30.923
-31.582
-32.252
-32.932
-33.622
-34.319
-35.023
-35.732
-36.444
-37.158
-37.872
-38.583
-39.289
-39.988
-40.678
-41.355
-42.017
-42.662
-43.288
-43.89
-44.468
-45.019
-45.54
-46.029
-46.484
-46.904
-47.287
-47.631
-47.937
-48.202
-48.427
-48.612
-48.758
-48.863
-48.93
-48.958
-48.949
-48.905
-48.825
-48.713
-48.57
-48.397
-48.198
-47.974
-47.73
-47.466
-47.187
-46.896
-46.595
-46.289
-45.982
-45.675
-45.374
-45.083
-44.804
-44.541
-44.299
-44.08
-43.888
-43.725
-43.595
-43.5
-43.443
-43.425
-43.448
-43.514
-43.626
-43.783
-43.987
-44.239
-44.54
-44.89
-45.289
-45.736
-46.23
-46.772
-47.358
-47.987
-48.657
-49.365
-50.108
-50.883
-51.685
-52.51
-53.353
-54.21
-55.074
-55.94
-56.803
-57.655
-58.492
-59.305
-60.088
-60.835
-61.538
-62.191
-62.787
-63.318
-63.778
-64.16
-64.457
-64.661
-64.766
-64.765
-64.654
-64.425
-64.073
-63.594
-62.984
-62.239
-61.357
-60.336
-59.173
-57.87
-56.427
-54.846
-53.128
-51.279
-49.303
-47.207
-44.996
-42.681
-40.27
-37.774
-35.208
-32.582
-29.913
-27.215
-24.504
-21.797
-19.11
-16.459
-13.861
-11.333
-8.891
-6.555
-4.342
-2.273
-0.364
1.367
2.904
4.231
5.335
6.207
6.838
7.222
7.348
7.203
6.774
6.055
5.042
3.738
2.149
0.288
-1.823
-4.153
-6.666
-9.328
-12.111
-14.991
-17.945
-20.944
-23.95
-26.915
-29.794
-32.549
-35.154
-37.589
-39.84
-41.919
-43.865
-45.752
-47.65
-49.613
-51.687
-53.919
-56.366
-59.107
-62.227
-65.786
-69.865
-74.576
-79.953
-85.968
-92.468
-99.111
-105.506
-111.292
-116.063
-119.384
-120.978
-120.731
-118.881
-116.104
-113.146
-110.624
-109.06
-108.899
-110.37
-113.357
-117.046
-119.814
-119.632
-114.546
-102.887
-82.897
-53.026
-12.297
39.656
101.195
168.673
238.789
308.18
374.463
438.017
496.958
546.501
580.522
589.701
567.202
512.752
429.109
321.774
198.885
67.888
-61.468
-175.233
-262.226
-316.816
-339.257
-336.784
-318.166
-288.802
-254.109
-220.744
-193.727
-177.324
-171.149
-168.046
-161.925
-150.012
-133.152
-116.686
-104.54
-97.377
-94.486
-94.002
-94.784
-96.591
-99.189
-102.213
-104.983
-107.093
-108.384
-108.627
-107.75
-105.851
-103.088
-99.915
-96.937
-94.379
-92.258
-90.538
-89.088
-87.829
-86.713
-85.557
-84.098
-82.209
-79.87
-77.125
-74.085
-70.807
-67.307
-63.628
-59.837
-55.995
-52.156
-48.357
-44.597
-40.872
-37.188
-33.544
-29.941
-26.372
-22.813
-19.234
-15.616
-11.942
-8.203
-4.394
-0.5
3.492
7.595
11.819
16.173
20.659
25.283
30.049
34.958
40.009
45.193
50.501
55.922
61.446
67.062
72.758
78.518
84.327
90.165
96.015
101.855
107.662
113.412
119.079
124.635
130.055
135.311
140.376
145.224
149.827
154.161
158.2
161.921
165.3
168.317
170.95
173.182
174.997
176.38
177.318
177.801
177.823
177.377
176.462
175.077
173.225
170.91
168.142
164.928
161.283
157.221
152.758
147.915
142.714
137.177
131.33
125.201
118.818
112.211
105.409
98.445
91.351
84.156
76.895
69.597
62.295
55.019
47.799
40.663
33.639
26.753
20.032
13.496
7.17
1.071
-4.781
-10.371
-15.685
-20.71
-25.437
-29.857
-33.964
-37.754
-41.225
-44.376
-47.21
-49.729
-51.939
-53.848
-55.463
-56.794
-57.853
-58.652
-59.204
-59.524
-59.626
-59.526
-59.239
-58.782
-58.172
-57.424
-56.554
-55.58
-54.516
-53.378
-52.181
-50.939
-49.666
-48.375
-47.078
-45.787
-44.512
-43.263
-42.05
-40.881
-39.763
-38.701
-37.702
-36.771
-35.909
-35.12
-34.405
-33.766
-33.202
-32.713
-32.298
-31.954
-31.679
-31.471
-31.326
-31.241
-31.211
-31.232
-31.301
-31.413
-31.563
-31.748
-31.962
-32.202
-32.462
-32.74
-33.03
-33.328
-33.632
-33.936
-34.239
-34.535
-34.824
-35.102
-35.366
-35.616
-35.849
-36.063
-36.259
-36.434
-36.59
-36.724
-36.837
-36.93
-37.002
-37.053
-37.085
-37.097
-37.091
-37.066
-37.024
-36.964
-36.888
-36.796
-36.688
-36.565
-36.427
-36.276
-36.111
-35.933
-35.743
-35.54
-35.325
-35.098
-34.859
-34.608
-34.346
-34.072
-33.785
-33.486
-33.174
-32.848
-32.509
-32.156
-31.789
-31.407
-31.011
-30.601
-30.177
-29.739
-29.288
-28.825
-28.351
-27.867
-27.373
-26.872
-26.364
-25.851
-25.335
-24.817
-24.3
-23.784
-23.272
-22.765
-22.267
-21.778
-21.302
-20.84
-20.394
-19.967
-19.561
-19.179
-18.822
-18.492
-18.192
-17.923
-17.687
-17.484
-17.315
-17.181
-17.08
-17.014
-16.98
-16.978
-17.006
-17.061
-17.143
-17.248
-17.374
-17.518
-17.676
-17.845
-18.022
-18.202
-18.381
-18.554
-18.717
-18.864
-18.991
-19.094
-19.167
-19.204
-19.2
-19.151
-19.05
-18.894
-18.677
-18.393
-18.04
-17.614
-17.111
-16.53
-15.869
-15.126
-14.302
-13.395
-12.408
-11.342
-10.197
-8.976
-7.683
-6.321
-4.894
-3.408
-1.868
-0.282
1.341
2.991
4.659
6.333
8.004
9.659
11.287
12.878
14.424
15.915
17.341
18.694
19.959
21.125
22.184
23.124
23.938
24.62
25.159
25.554
25.806
25.917
25.883
25.699
25.347
24.815
24.099
23.197
22.114
20.86
19.444
17.891
16.241
14.532
12.801
11.075
9.367
7.7
6.104
4.621
3.306
2.202
1.336
0.725
0.375
0.273
0.387
0.656
0.988
1.285
1.447
1.381
0.998
0.204
-1.083
-2.977
-5.637
-9.144
-13.494
-18.56
-24.037
-29.592
-34.935
-39.695
-43.428
-45.836
-46.809
-46.616
-45.974
-45.645
-46.213
-48.121
-51.684
-56.93
-63.507
-70.375
-75.741
-77.477
-73.613
-62.575
-42.855
-13.257
26.834
77.48
136.978
201.671
267.984
332.558
393.571
452.482
509.219
560.268
598.45
612.157
592.973
539.862
458.477
358.372
246.941
129.56
10.809
-100.541
-190.47
-250.225
-276.197
-273.206
-254.852
-228.235
-198.718
-171.042
-144.221
-122.366
-107.699
-96.733
-88.661
-80.762
-71.651
-64.333
-59.875
-58.632
-60.442
-63.33
-65.925
-67.344
-67.086
-65.42
-62.668
-59.162
-55.205
-50.92
-46.628
-42.903
-40.081
-38.275
-37.442
-37.303
-37.599
-38.158
-38.752
-39.101
-39.028
-38.438
-37.293
-35.658
-33.6
-31.155
-28.38
-25.33
-22.042
-18.552
-14.894
-11.093
-7.19
-3.236
0.738
4.711
8.67
12.616
16.551
20.481
24.426
28.411
32.452
36.56
40.744
45.007
49.359
53.814
58.381
63.069
67.882
72.825
77.898
83.098
88.421
93.855
99.387
105.002
110.687
116.426
122.204
128.005
133.81
139.6
145.354
151.051
156.666
162.175
167.552
172.77
177.803
182.624
187.209
191.53
195.564
199.287
202.674
205.706
208.361
210.619
212.464
213.879
214.852
215.371
215.427
215.013
214.124
212.758
210.915
208.599
205.814
202.568
198.871
194.735
190.175
185.209
179.856
174.137
168.074
161.695
155.025
148.094
140.929
133.563
126.026
118.35
110.567
102.709
94.808
86.896
79.004
71.162
63.401
55.747
48.229
40.871
33.698
26.733
19.995
13.504
7.277
1.329
-4.328
-9.682
-14.723
-19.445
-23.844
-27.915
-31.659
-35.076
-38.169
-40.943
-43.403
-45.558
-47.417
-48.99
-50.29
-51.328
-52.12
-52.678
-53.02
-53.159
-53.113
-52.898
-52.529
-52.024
-51.397
-50.666
-49.844
-48.946
-47.988
-46.982
-45.942
-44.879
-43.806
-42.734
-41.671
-40.627
-39.61
-38.628
-37.686
-36.79
-35.946
-35.156
-34.424
-33.752
-33.141
-32.593
-32.109
-31.686
-31.326
-31.025
-30.784
-30.598
-30.466
-30.386
-30.355
-30.37
-30.428
-30.527
-30.664
-30.837
-31.044
-31.282
-31.55
-31.845
-32.166
-32.511
-32.88
-33.27
-33.682
-34.114
-34.567
-35.038
-35.53
-36.04
-36.569
-37.117
-37.684
-38.269
-38.874
-39.497
-40.14
-40.801
-41.482
-42.182
-42.9
-43.637
-44.392
-45.164
-45.951
-46.754
-47.57
-48.397
-49.234
-50.079
-50.929
-51.782
-52.635
-53.486
-54.331
-55.169
-55.996
-56.809
-57.605
-58.381
-59.135
-59.864
-60.565
-61.237
-61.876
-62.482
-63.053
-63.587
-64.083
-64.54
-64.959
-65.338
-65.677
-65.977
-66.239
-66.465
-66.654
-66.81
-66.935
-67.031
-67.101
-67.148
-67.175
-67.185
-67.184
-67.173
-67.157
-67.141
-67.127
-67.122
-67.127
-67.147
-67.187
-67.249
-67.337
-67.455
-67.604
-67.788
-68.008
-68.267
-68.566
-68.905
-69.285
-69.706
-70.168
-70.669
-71.207
-71.78
-72.385
-73.02
-73.679
-74.358
-75.054
-75.76
-76.471
-77.18
-77.881
-78.568
-79.232
-79.867
-80.464
-81.016
-81.514
-81.952
-82.32
-82.613
-82.821
-82.937
-82.955
-82.868
-82.669
-82.354
-81.916
-81.349
-80.649
-79.812
-78.837
-77.725
-76.471
-75.073
-73.539
-71.878
-70.096
-68.206
-66.207
-64.091
-61.877
-59.584
-57.197
-54.708
-52.115
-49.409
-46.623
-43.815
-40.978
-38.089
-35.274
-32.678
-30.24
-27.985
-25.954
-23.892
-22.551
-22.661
-23.218
-23.924
-22.919
-17.976
-11.587
-5.418
-1.929
-4.5
-10.14
-16.317
-21.306
-22.247
-21.188
-20.201
-19.739
-21.057
-23.412
-25.841
-28.489
-31.195
-33.976
-36.982
-40.066
-43.11
-46.127
-49.101
-51.966
-54.661
-57.149
-59.402
-61.421
-63.238
-64.837
-66.185
-67.337
-68.428
-69.676
-71.312
-73.435
-75.988
-78.879
-82.166
-85.935
-90.085
-94.232
-97.813
-100.397
-101.968
-102.772
-102.787
-101.798
-99.808
-97.172
-94.708
-93.384
-93.562
-95.112
-98.093
-102.588
-108.507
-115.522
-122.486
-127.614
-129.433
-126.556
-117.494
-101.091
-75.946
-40.698
4.962
60.73
125.039
194.362
265.494
335.433
401.994
465.637
524.825
574.805
608.968
617.912
595.023
540.194
456.59
349.879
227.717
97.411
-30.9
-143.158
-227.92
-279.178
-297.437
-290.153
-266.016
-231.084
-191.698
-155.01
-126.62
-111.198
-107.974
-109.412
-109.419
-104.561
-95.174
-86.784
-83.009
-84.02
-88.696
-93.934
-97.283
-98.415
-97.487
-94.829
-90.936
-86.132
-80.657
-75.083
-70.181
-66.311
-63.612
-62.127
-61.65
-61.958
-62.878
-64.073
-65.132
-65.824
-66.019
-65.66
-64.8
-63.461
-61.642
-59.393
-56.778
-53.843
-50.625
-47.146
-43.405
-39.431
-35.272
-30.976
-26.598
-22.167
-17.698
-13.199
-8.671
-4.112
0.486
5.14
9.867
14.681
19.591
24.601
29.718
34.949
40.303
45.787
51.409
57.17
63.067
69.097
75.25
81.514
87.875
94.316
100.818
107.363
113.929
120.499
127.049
133.559
140.004
146.361
152.604
158.707
164.643
170.386
175.908
181.184
186.186
190.889
195.268
199.3
202.962
206.234
209.095
211.527
213.515
215.044
216.104
216.683
216.775
216.375
215.481
214.093
212.214
209.849
207.007
203.697
199.934
195.731
191.107
186.081
180.674
174.909
168.812
162.408
155.726
148.795
141.644
134.305
126.809
119.187
111.472
103.695
95.888
88.082
80.307
72.592
64.966
57.456
50.088
42.887
35.876
29.076
22.506
16.184
10.125
4.344
-1.149
-6.343
-11.231
-15.806
-20.065
-24.006
-27.628
-30.934
-33.925
-36.606
-38.985
-41.068
-42.864
-44.383
-45.638
-46.639
-47.399
-47.934
-48.257
-48.382
-48.326
-48.103
-47.729
-47.22
-46.592
-45.859
-45.036
-44.138
-43.18
-42.174
-41.133
-40.07
-38.997
-37.924
-36.861
-35.818
-34.803
-33.824
-32.889
-32.002
-31.171
-30.398
-29.689
-29.046
-28.471
-27.967
-27.533
-27.171
-26.88
-26.659
-26.506
-26.419
-26.396
-26.434
-26.529
-26.679
-26.88
-27.127
-27.418
-27.748
-28.114
-28.511
-28.935
-29.383
-29.851
-30.335
-30.831
-31.337
-31.849
-32.364
-32.88
-33.393
-33.901
-34.403
-34.895
-35.377
-35.846
-36.301
-36.742
-37.167
-37.576
-37.97
-38.347
-38.709
-39.057
-39.39
-39.71
-40.017
-40.312
-40.597
-40.872
-41.139
-41.398
-41.651
-41.898
-42.142
-42.382
-42.621
-42.858
-43.096
-43.334
-43.574
-43.817
-44.063
-44.313
-44.568
-44.829
-45.098
-45.373
-45.658
-45.951
-46.253
-46.565
-46.886
-47.217
-47.556
-47.904
-48.261
-48.627
-49.001
-49.384
-49.775
-50.174
-50.581
-50.995
-51.418
-51.847
-52.284
-52.728
-53.178
-53.635
-54.099
-54.568
-55.044
-55.524
-56.007
-56.494
-56.981
-57.467
-57.949
-58.426
-58.895
-59.353
-59.799
-60.228
-60.639
-61.028
-61.392
-61.727
-62.029
-62.295
-62.52
-62.699
-62.827
-62.901
-62.914
-62.864
-62.744
-62.549
-62.275
-61.916
-61.468
-60.926
-60.284
-59.539
-58.686
-57.724
-56.649
-55.461
-54.158
-52.74
-51.21
-49.567
-47.816
-45.96
-44.001
-41.947
-39.803
-37.575
-35.274
-32.906
-30.485
-28.022
-25.532
-23.028
-20.525
-18.04
-15.589
-13.188
-10.855
-8.604
-6.45
-4.412
-2.504
-0.747
0.843
2.25
3.459
4.455
5.226
5.762
6.052
6.098
5.895
5.441
4.731
3.752
2.495
0.959
-0.854
-2.939
-5.283
-7.873
-10.687
-13.688
-16.838
-20.103
-23.449
-26.858
-30.301
-33.744
-37.14
-40.428
-43.553
-46.473
-49.154
-51.569
-53.702
-55.551
-57.14
-58.519
-59.744
-60.881
-61.991
-63.135
-64.387
-65.813
-67.514
-69.646
-72.303
-75.513
-79.21
-83.165
-87.113
-90.838
-94.011
-96.22
-97.205
-96.805
-95.175
-92.976
-90.863
-89.375
-89.114
-90.477
-93.569
-98.341
-104.073
-109.128
-111.778
-110.212
-102.485
-87.088
-62.77
-28.503
15.951
69.76
131.684
200.111
271.698
342.088
407.406
463.238
508.433
545.773
574.261
592.166
594.809
570.829
515.716
428.519
310.174
173.01
29.982
-104.773
-212.238
-282.777
-315.917
-316.488
-297.959
-271.861
-240.835
-207.244
-172.192
-136.475
-107.169
-87.676
-76.033
-70.751
-67.025
-62.588
-60.156
-60.486
-63.888
-69.669
-74.517
-76.73
-76.26
-73.188
-68.319
-62.476
-56.06
-49.788
-44.667
-41.192
-39.448
-39.357
-40.542
-42.628
-45.357
-48.327
-51.086
-53.371
-55.047
-56.076
-56.517
-56.382
-55.641
-54.28
-52.307
-49.748
-46.648
-43.065
-39.077
-34.766
-30.221
-25.539
-20.785
-16.001
-11.212
-6.416
-1.605
3.217
8.046
12.872
17.673
22.449
27.206
31.961
36.746
41.591
46.521
51.566
56.748
62.074
67.549
73.161
78.893
84.729
90.656
96.662
102.737
108.869
115.039
121.231
127.423
133.592
139.713
145.76
151.704
157.52
163.181
168.663
173.944
179
183.808
188.344
192.583
196.502
200.077
203.287
206.109
208.522
210.508
212.052
213.139
213.759
213.901
213.557
212.724
211.4
209.584
207.279
204.491
201.227
197.498
193.317
188.698
183.659
178.22
172.401
166.226
159.72
152.91
145.823
138.489
130.938
123.2
115.308
107.292
99.186
91.021
82.829
74.644
66.495
58.414
50.429
42.57
34.862
27.331
20.001
12.893
6.027
-0.578
-6.908
-12.947
-18.684
-24.109
-29.214
-33.994
-38.444
-42.564
-46.352
-49.811
-52.944
-55.756
-58.253
-60.443
-62.335
-63.94
-65.268
-66.332
-67.145
-67.722
-68.076
-68.223
-68.178
-67.957
-67.576
-67.05
-66.395
-65.628
-64.761
-63.812
-62.793
-61.718
-60.601
-59.453
-58.287
-57.112
-55.939
-54.778
-53.635
-52.519
-51.436
-50.392
-49.393
-48.442
-47.544
-46.702
-45.918
-45.195
-44.533
-43.934
-43.397
-42.923
-42.51
-42.157
-41.863
-41.626
-41.443
-41.311
-41.229
-41.192
-41.198
-41.244
-41.326
-41.44
-41.583
-41.752
-41.942
-42.151
-42.375
-42.611
-42.856
-43.108
-43.363
-43.62
-43.876
-44.129
-44.376
-44.615
-44.845
-45.064
-45.269
-45.461
-45.637
-45.797
-45.94
-46.065
-46.174
-46.265
-46.338
-46.395
-46.436
-46.461
-46.472
-46.47
-46.456
-46.433
-46.402
-46.366
-46.327
-46.286
-46.247
-46.211
-46.18
-46.157
-46.144
-46.142
-46.154
-46.181
-46.227
-46.293
-46.381
-46.491
-46.627
-46.788
-46.975
-47.19
-47.432
-47.702
-47.998
-48.321
-48.669
-49.041
-49.436
-49.85
-50.282
-50.727
-51.183
-51.646
-52.111
-52.573
-53.029
-53.472
-53.899
-54.304
-54.682
-55.026
-55.333
-55.596
-55.808
-55.965
-56.06
-56.087
-56.041
-55.916
-55.708
-55.412
-55.022
-54.535
-53.947
-53.255
-52.454
-51.543
-50.519
-49.381
-48.128
-46.761
-45.281
-43.689
-41.987
-40.18
-38.271
-36.265
-34.166
-31.981
-29.715
-27.376
-24.972
-22.51
-20.002
-17.457
-14.888
-12.308
-9.73
-7.168
-4.635
-2.146
0.285
2.645
4.923
7.106
9.183
11.142
12.966
14.644
16.163
17.513
18.685
19.669
20.457
21.042
21.427
21.612
21.593
21.367
20.919
20.24
19.331
18.193
16.834
15.264
13.496
11.554
9.478
7.308
5.08
2.827
0.565
-1.681
-3.875
-5.973
-7.921
-9.669
-11.197
-12.489
-13.529
-14.32
-14.879
-15.251
-15.521
-15.777
-16.102
-16.575
-17.269
-18.266
-19.652
-21.536
-24.06
-27.304
-31.262
-35.843
-40.829
-45.98
-51.08
-55.789
-59.669
-62.409
-63.81
-63.953
-63.336
-62.396
-61.5
-61.124
-61.609
-63.134
-65.791
-69.065
-71.671
-72.284
-69.394
-61.28
-46.625
-24.169
7.4
48.616
99.021
157.883
222.848
289.788
355.255
415.416
467.985
514.191
553.435
582.342
595.935
585.566
544.282
472.384
372.027
248.483
113.352
-23.18
-146.892
-239.669
-294.63
-311.842
-299.402
-275.206
-249.786
-226.87
-206.934
-185.06
-160.448
-136.39
-115.867
-102.167
-96.166
-96.414
-100.968
-107.522
-113.885
-118.255
-119.391
-116.778
-110.437
-100.78
-88.587
-74.827
-60.671
-47.382
-35.857
-26.544
-19.599
-14.925
-12.304
-11.503
-12.131
-13.682
-15.767
-18.109
-20.522
-22.931
-25.24
-27.287
-28.963
-30.185
-30.852
-30.907
-30.292
-28.941
-26.836
-23.984
-20.417
-16.203
-11.421
-6.143
-0.449
5.587
11.888
18.352
24.897
31.46
37.977
44.415
50.75
56.96
63.045
69.01
74.854
80.582
86.205
91.726
97.155
102.498
107.756
112.949
118.098
123.228
128.362
133.506
138.649
143.767
148.832
153.821
158.729
163.556
168.292
172.929
177.464
181.907
186.281
190.581
194.765
198.761
202.499
205.929
209.025
211.776
214.166
216.164
217.733
218.84
219.467
219.59
219.173
218.155
216.465
214.072
211.002
207.324
203.106
198.394
193.214
187.591
181.562
175.174
168.471
161.482
154.226
146.739
139.073
131.311
123.539
115.81
108.139
100.509
92.911
85.351
77.847
70.415
63.059
55.783
48.607
41.564
34.692
28.013
21.536
15.255
9.161
3.26
-2.427
-7.867
-13.038
-17.924
-22.512
-26.788
-30.735
-34.343
-37.611
-40.553
-43.182
-45.505
-47.528
-49.253
-50.685
-51.835
-52.715
-53.339
-53.721
-53.874
-53.814
-53.559
-53.126
-52.534
-51.797
-50.926
-49.934
-48.835
-47.642
-46.369
-45.029
-43.633
-42.194
-40.725
-39.239
-37.745
-36.253
-34.773
-33.312
-31.878
-30.478
-29.118
-27.802
-26.535
-25.322
-24.166
-23.07
-22.038
-21.07
-20.168
-19.335
-18.57
-17.874
-17.248
-16.689
-16.198
-15.775
-15.418
-15.125
-14.897
-14.731
-14.625
-14.58
-14.593
-14.662
-14.784
-14.959
-15.184
-15.457
-15.776
-16.139
-16.544
-16.989
-17.472
-17.992
-18.546
-19.132
-19.747
-20.39
-21.058
-21.749
-22.46
-23.188
-23.932
-24.688
-25.454
-26.228
-27.007
-27.788
-28.569
-29.347
-30.12
-30.885
-31.64
-32.382
-33.109
-33.82
-34.512
-35.185
-35.836
-36.464
-37.069
-37.65
-38.207
-38.738
-39.246
-39.73
-40.19
-40.629
-41.048
-41.448
-41.831
-42.2
-42.558
-42.907
-43.25
-43.59
-43.931
-44.275
-44.628
-44.992
-45.371
-45.769
-46.19
-46.636
-47.112
-47.621
-48.165
-48.748
-49.371
-50.036
-50.746
-51.5
-52.298
-53.142
-54.028
-54.958
-55.927
-56.934
-57.976
-59.047
-60.145
-61.265
-62.399
-63.544
-64.692
-65.836
-66.968
-68.082
-69.168
-70.218
-71.223
-72.174
-73.062
-73.879
-74.614
-75.26
-75.808
-76.249
-76.574
-76.777
-76.85
-76.787
-76.582
-76.229
-75.726
-75.07
-74.259
-73.291
-72.166
-70.887
-69.455
-67.873
-66.148
-64.282
-62.285
-60.164
-57.928
-55.589
-53.156
-50.646
-48.072
-45.451
-42.8
-40.139
-37.484
-34.855
-32.271
-29.751
-27.312
-24.972
-22.747
-20.655
-18.715
-16.947
-15.367
-13.99
-12.832
-11.905
-11.221
-10.79
-10.614
-10.696
-11.038
-11.647
-12.537
-13.72
-15.196
-16.963
-19.014
-21.336
-23.91
-26.713
-29.699
-32.828
-36.061
-39.362
-42.713
-46.09
-49.453
-52.761
-55.952
-58.97
-61.785
-64.373
-66.704
-68.784
-70.629
-72.281
-73.828
-75.337
-76.861
-78.463
-80.191
-82.111
-84.312
-86.859
-89.852
-93.439
-97.662
-102.486
-107.773
-113.177
-118.331
-122.929
-126.556
-128.767
-129.325
-128.17
-125.641
-122.554
-119.701
-117.675
-116.967
-117.946
-120.749
-125.158
-130.178
-133.989
-134.45
-129.548
-117.682
-97.251
-66.762
-25.289
27.461
89.903
158.288
228.983
298.522
364.442
427.165
485.665
535.809
571.753
584.383
565.795
514.411
432.388
324.975
201.04
69.559
-59.053
-170.71
-253.235
-300.702
-312.449
-295.019
-260.679
-218.677
-178.353
-149.315
-133.383
-130.935
-138.466
-146.295
-150.512
-150.053
-145.577
-142.172
-141.375
-141.967
-143.079
-142.487
-139.054
-133.419
-126.152
-118.083
-110.329
-103.465
-97.699
-93.244
-90.166
-88.374
-87.8
-88.234
-89.237
-90.476
-91.732
-92.797
-93.552
-93.92
-93.805
-93.172
-92.048
-90.446
-88.384
-85.893
-82.982
-79.675
-76.011
-72.024
-67.757
-63.261
-58.586
-53.788
-48.918
-44.014
-39.097
-34.182
-29.273
-24.368
-19.459
-14.528
-9.557
-4.529
0.566
5.74
11.001
16.361
21.83
27.413
33.118
38.945
44.893
50.959
57.136
63.415
69.783
76.226
82.726
89.266
95.83
102.399
108.954
115.477
121.944
128.336
134.63
140.802
146.829
152.684
158.343
163.78
168.97
173.888
178.511
182.814
186.775
190.374
193.592
196.409
198.809
200.778
202.303
203.374
203.983
204.122
203.788
202.98
201.699
199.948
197.733
195.063
191.946
188.397
184.43
180.061
175.309
170.195
164.741
158.971
152.911
146.588
140.031
133.268
126.329
119.246
112.049
104.768
97.435
90.08
82.732
75.421
68.176
61.023
53.988
47.096
40.37
33.831
27.5
21.393
15.528
9.917
4.574
-0.493
-5.273
-9.762
-13.954
-17.846
-21.439
-24.732
-27.729
-30.434
-32.853
-34.992
-36.862
-38.473
-39.835
-40.961
-41.864
-42.558
-43.058
-43.378
-43.535
-43.542
-43.418
-43.175
-42.831
-42.4
-41.897
-41.336
-40.731
-40.094
-39.438
-38.774
-38.111
-37.461
-36.832
-36.232
-35.668
-35.147
-34.673
-34.252
-33.887
-33.58
-33.334
-33.149
-33.026
-32.964
-32.962
-33.018
-33.129
-33.294
-33.508
-33.768
-34.071
-34.412
-34.786
-35.189
-35.616
-36.064
-36.526
-37
-37.48
-37.963
-38.445
-38.922
-39.391
-39.848
-40.292
-40.718
-41.125
-41.51
-41.871
-42.206
-42.516
-42.797
-43.051
-43.275
-43.472
-43.639
-43.778
-43.889
-43.972
-44.028
-44.057
-44.061
-44.039
-43.993
-43.923
-43.83
-43.714
-43.577
-43.419
-43.24
-43.041
-42.821
-42.581
-42.322
-42.042
-41.744
-41.426
-41.09
-40.735
-40.361
-39.969
-39.559
-39.13
-38.683
-38.217
-37.733
-37.23
-36.707
-36.166
-35.606
-35.027
-34.43
-33.816
-33.184
-32.537
-31.875
-31.2
-30.513
-29.816
-29.11
-28.399
-27.684
-26.968
-26.253
-25.543
-24.839
-24.145
-23.462
-22.793
-22.142
-21.509
-20.897
-20.31
-19.748
-19.214
-18.712
-18.243
-17.809
-17.414
-17.06
-16.747
-16.48
-16.258
-16.084
-15.958
-15.882
-15.856
-15.881
-15.955
-16.078
-16.251
-16.47
-16.734
-17.04
-17.387
-17.77
-18.187
-18.633
-19.105
-19.599
-20.112
-20.638
-21.173
-21.714
-22.255
-22.791
-23.317
-23.826
-24.315
-24.775
-25.201
-25.587
-25.925
-26.21
-26.435
-26.594
-26.682
-26.693
-26.62
-26.46
-26.207
-25.856
-25.405
-24.851
-24.19
-23.423
-22.549
-21.567
-20.48
-19.288
-17.995
-16.602
-15.113
-13.532
-11.864
-10.115
-8.291
-6.401
-4.453
-2.457
-0.426
1.627
3.689
5.746
7.784
9.785
11.733
13.608
15.395
17.078
18.642
20.072
21.352
22.466
23.401
24.149
24.701
25.047
25.178
25.083
24.758
24.207
23.436
22.451
21.254
19.836
18.192
16.329
14.251
11.968
9.489
6.817
3.97
0.983
-2.102
-5.233
-8.375
-11.511
-14.631
-17.729
-20.777
-23.711
-26.47
-28.998
-31.256
-33.249
-34.956
-36.325
-37.388
-38.234
-39.054
-40.167
-41.742
-43.77
-46.232
-49.062
-52.181
-55.612
-59.066
-61.899
-63.713
-64.296
-63.612
-61.967
-59.495
-56.042
-51.934
-47.99
-44.941
-43.642
-44.601
-47.675
-52.938
-60.628
-70.385
-81.313
-92.082
-100.626
-104.903
-103.21
-93.595
-74.18
-43.477
-0.431
55.077
122.121
197.955
277.926
357.376
431.299
496.967
555.751
606.819
647.541
673
671.238
633.051
555.427
438.101
292.295
136.137
-13.526
-136.941
-220.862
-264.86
-272.476
-253.136
-220.395
-181.309
-143.284
-115.182
-98.496
-94.227
-99.356
-103.815
-103.272
-96.698
-85.307
-75.461
-69.977
-68.184
-69.402
-71.47
-73.103
-74.653
-76.075
-77.024
-77.49
-77.448
-76.768
-75.532
-73.886
-71.8
-69.511
-67.521
-65.995
-64.954
-64.406
-64.129
-63.918
-63.821
-63.787
-63.479
-62.77
-61.618
-59.746
-57.967
-57.037
-55.966
-54.495
-50.833
-42.814
-32.935
-22.865
-15.055
-12.873
-13.399
-14.153
-13.443
-8.444
-1.178
6.312
13.586
19.411
24.523
29.863
35.258
40.831
46.526
52.159
57.86
63.728
69.732
75.864
82.133
88.53
95.039
101.643
108.307
114.992
121.688
128.387
135.065
141.705
148.284
154.779
161.169
167.435
173.551
179.489
185.225
190.731
195.982
200.953
205.62
209.959
213.947
217.561
220.783
223.592
225.972
227.906
229.38
230.383
230.905
230.94
230.482
229.53
228.084
226.147
223.725
220.826
217.461
213.643
209.386
204.708
199.63
194.172
188.359
182.214
175.765
169.039
162.066
154.875
147.498
139.965
132.307
124.556
116.743
108.9
101.056
93.243
85.487
77.819
70.264
62.847
55.592
48.522
41.655
35.01
28.603
22.448
16.558
10.942
5.61
0.566
-4.184
-8.639
-12.797
-16.661
-20.233
-23.517
-26.52
-29.249
-31.711
-33.917
-35.877
-37.602
-39.103
-40.393
-41.486
-42.395
-43.133
-43.715
-44.154
-44.465
-44.662
-44.757
-44.763
-44.693
-44.558
-44.37
-44.138
-43.873
-43.584
-43.278
-42.965
-42.65
-42.34
-42.04
-41.755
-41.488
-41.244
-41.024
-40.831
-40.667
-40.532
-40.429
-40.357
-40.317
-40.308
-40.331
-40.384
-40.466
-40.576
-40.713
-40.875
-41.06
-41.268
-41.496
-41.744
-42.01
-42.294
-42.595
-42.911
-43.242
-43.587
-43.946
-44.319
-44.704
-45.101
-45.511
-45.932
-46.366
-46.811
-47.269
-47.738
-48.219
-48.711
-49.215
-49.729
-50.254
-50.79
-51.335
-51.89
-52.455
-53.028
-53.611
-54.202
-54.801
-55.408
-56.021
-56.639
-57.262
-57.888
-58.516
-59.144
-59.771
-60.396
-61.018
-61.635
-62.246
-62.849
-63.444
-64.03
-64.604
-65.166
-65.714
-66.248
-66.767
-67.27
-67.755
-68.223
-68.672
-69.102
-69.512
-69.901
-70.269
-70.614
-70.937
-71.236
-71.511
-71.761
-71.988
-72.19
-72.368
-72.523
-72.654
-72.763
-72.85
-72.916
-72.96
-72.985
-72.991
-72.978
-72.946
-72.898
-72.834
-72.754
-72.66
-72.553
-72.433
-72.302
-72.161
-72.011
-71.853
-71.689
-71.52
-71.348
-71.174
-71
-70.829
-70.662
-70.5
-70.346
-70.201
-70.066
-69.943
-69.831
-69.732
-69.647
-69.576
-69.52
-69.478
-69.452
-69.442
-69.448
-69.471
-69.51
-69.565
-69.637
-69.725
-69.828
-69.946
-70.078
-70.225
-70.384
-70.555
-70.736
-70.926
-71.123
-71.324
-71.528
-71.731
-71.93
-72.122
-72.305
-72.475
-72.63
-72.765
-72.878
-72.967
-73.029
-73.061
-73.059
-73.022
-72.945
-72.826
-72.662
-72.448
-72.183
-71.862
-71.483
-71.042
-70.537
-69.964
-69.32
-68.603
-67.81
-66.938
-65.986
-64.951
-63.833
-62.631
-61.344
-59.974
-58.522
-56.99
-55.379
-53.693
-51.936
-50.111
-48.224
-46.277
-44.278
-42.231
-40.144
-38.024
-35.878
-33.716
-31.549
-29.388
-27.245
-25.135
-23.069
-21.062
-19.128
-17.281
-15.533
-13.895
-12.38
-10.999
-9.766
-8.693
-7.794
-7.077
-6.551
-6.225
-6.105
-6.198
-6.504
-7.018
-7.739
-8.666
-9.806
-11.171
-12.765
-14.587
-16.632
-18.893
-21.36
-24.022
-26.852
-29.809
-32.856
-35.955
-39.081
-42.215
-45.324
-48.365
-51.287
-54.03
-56.551
-58.825
-60.826
-62.529
-63.932
-65.043
-65.891
-66.558
-67.121
-67.653
-68.243
-68.967
-69.906
-71.183
-72.957
-75.332
-78.33
-81.862
-85.691
-89.584
-93.321
-96.594
-99.023
-100.317
-100.344
-99.309
-97.856
-96.626
-96.178
-97.096
-99.796
-104.483
-111.116
-118.942
-126.385
-131.687
-132.839
-127.79
-114.926
-92.614
-59.476
-15.176
39.908
104.089
173.547
244.371
312.822
375.935
433.909
486.468
530.3
560.164
567.311
543.008
484.842
394.373
276.631
142.06
1.276
-133.594
-246.983
-327.716
-371.018
-377.789
-357.719
-324.12
-287.23
-256.552
-237.188
-227.37
-223.641
-219.495
-209.046
-192.106
-171.533
-152.094
-137.316
-127.266
-120.405
-114.875
-109.793
-105.104
-100.413
-95.123
-88.84
-81.507
-73.465
-65.101
-56.597
-48.131
-40.175
-33.388
-28.195
-24.702
-22.762
-22.089
-22.459
-23.717
-25.626
-27.86
-30.154
-32.311
-34.178
-35.641
-36.609
-36.989
-36.726
-35.817
-34.258
-32.05
-29.222
-25.817
-21.888
-17.49
-12.656
-7.402
-1.767
4.196
10.413
16.782
23.238
29.736
36.234
42.707
49.136
55.503
61.819
68.113
74.404
80.707
87.025
93.352
99.689
106.048
112.439
118.884
125.389
131.951
138.567
145.225
151.912
158.609
165.288
171.909
178.441
184.851
191.11
197.192
203.069
208.71
214.085
219.164
223.921
228.329
232.364
236.001
239.218
241.997
244.32
246.176
247.552
248.437
248.822
248.7
248.065
246.917
245.254
243.079
240.398
237.219
233.554
229.417
224.825
219.796
214.353
208.519
202.32
195.784
188.94
181.818
174.45
166.869
159.108
151.201
143.182
135.085
126.943
118.791
110.663
102.59
94.604
86.736
79.017
71.473
64.132
57.017
50.152
43.558
37.254
31.255
25.577
20.232
15.228
10.574
6.274
2.331
-1.256
-4.488
-7.368
-9.904
-12.102
-13.972
-15.524
-16.772
-17.727
-18.405
-18.822
-18.993
-18.936
-18.669
-18.209
-17.576
-16.788
-15.864
-14.822
-13.681
-12.459
-11.173
-9.84
-8.476
-7.096
-5.716
-4.347
-3.003
-1.695
-0.433
0.775
1.92
2.996
3.997
4.919
5.758
6.512
7.18
7.759
8.251
8.655
8.974
9.21
9.365
9.442
9.445
9.379
9.247
9.055
8.808
8.511
8.17
7.789
7.375
6.932
6.466
5.981
5.483
4.974
4.46
3.943
3.428
2.915
2.408
1.909
1.419
0.94
0.472
0.016
-0.426
-0.855
-1.271
-1.672
-2.06
-2.433
-2.793
-3.139
-3.472
-3.793
-4.101
-4.398
-4.685
-4.961
-5.227
-5.485
-5.734
-5.976
-6.211
-6.438
-6.659
-6.874
-7.081
-7.281
-7.472
-7.655
-7.828
-7.99
-8.14
-8.277
-8.4
-8.508
-8.601
-8.677
-8.737
-8.781
-8.808
-8.82
-8.816
-8.797
-8.765
-8.721
-8.667
-8.603
-8.533
-8.458
-8.38
-8.302
-8.226
-8.155
-8.09
-8.035
-7.993
-7.966
-7.958
-7.972
-8.012
-8.081
-8.183
-8.321
-8.499
-8.719
-8.986
-9.301
-9.666
-10.085
-10.557
-11.085
-11.669
-12.309
-13.004
-13.754
-14.555
-15.407
-16.305
-17.247
-18.227
-19.243
-20.288
-21.358
-22.447
-23.549
-24.659
-25.77
-26.877
-27.97
-29.045
-30.094
-31.108
-32.08
-33.002
-33.865
-34.663
-35.387
-36.03
-36.585
-37.044
-37.402
-37.652
-37.788
-37.807
-37.703
-37.472
-37.114
-36.625
-36.007
-35.26
-34.386
-33.385
-32.261
-31.019
-29.663
-28.199
-26.632
-24.968
-23.217
-21.385
-19.483
-17.522
-15.513
-13.468
-11.4
-9.323
-7.254
-5.209
-3.206
-1.26
0.611
2.391
4.067
5.623
7.047
8.325
9.448
10.406
11.189
11.789
12.195
12.399
12.397
12.194
11.796
11.21
10.435
9.47
8.307
6.944
5.39
3.642
1.698
-0.44
-2.765
-5.249
-7.84
-10.499
-13.196
-15.919
-18.682
-21.466
-24.22
-26.889
-29.393
-31.689
-33.789
-35.653
-37.203
-38.43
-39.356
-40.143
-41.125
-42.48
-44.214
-46.319
-48.706
-51.302
-54.138
-56.951
-59.163
-60.433
-60.61
-59.784
-58.42
-56.805
-54.965
-53.289
-52.483
-53.101
-55.711
-60.436
-66.736
-74.305
-83.037
-92.389
-101.597
-109.772
-115.591
-118.005
-116.446
-109.893
-97.248
-77.846
-50.835
-15.638
27.578
78.789
136.695
197.881
259.472
318.647
374.659
429.954
483.246
529.753
560.597
563.396
533.029
471.387
385.379
285.129
176.392
63.587
-46.291
-142.694
-212.627
-248.758
-253.187
-237.008
-214.738
-195.332
-181.238
-169.941
-157.491
-143.451
-129.323
-117.087
-108.649
-103.938
-101.997
-101.645
-101.133
-99.353
-96.092
-91.382
-85.541
-78.926
-71.573
-63.835
-56.534
-50.263
-45.312
-41.772
-39.458
-38.231
-38.169
-39.134
-40.727
-42.604
-44.431
-45.977
-47.215
-48.102
-48.534
-48.473
-47.91
-46.853
-45.374
-43.515
-41.262
-38.612
-35.549
-32.096
-28.347
-24.386
-20.287
-16.12
-11.918
-7.707
-3.524
0.619
4.731
8.825
12.931
17.074
21.251
25.461
29.694
33.953
38.27
42.667
47.161
51.766
56.488
61.332
66.313
71.429
76.666
82.008
87.435
92.929
98.48
104.076
109.702
115.341
120.971
126.571
132.121
137.599
142.981
148.241
153.35
158.283
163.017
167.53
171.799
175.8
179.509
182.906
185.971
188.684
191.026
192.981
194.531
195.665
196.37
196.637
196.459
195.83
194.748
193.213
191.226
188.792
185.918
182.612
178.886
174.754
170.23
165.332
160.079
154.493
148.596
142.413
135.97
129.294
122.413
115.355
108.15
100.827
93.416
85.945
78.444
70.94
63.463
56.038
48.693
41.453
34.341
27.381
20.594
13.999
7.615
1.458
-4.458
-10.121
-15.519
-20.643
-25.486
-30.044
-34.312
-38.289
-41.974
-45.371
-48.481
-51.31
-53.864
-56.151
-58.179
-59.958
-61.497
-62.808
-63.902
-64.792
-65.489
-66.005
-66.354
-66.548
-66.6
-66.522
-66.327
-66.027
-65.634
-65.16
-64.615
-64.01
-63.355
-62.66
-61.933
-61.183
-60.417
-59.644
-58.867
-58.095
-57.33
-56.577
-55.841
-55.122
-54.425
-53.749
-53.098
-52.471
-51.87
-51.294
-50.746
-50.224
-49.729
-49.261
-48.82
-48.407
-48.021
-47.663
-47.332
-47.028
-46.752
-46.504
-46.283
-46.089
-45.923
-45.783
-45.671
-45.585
-45.525
-45.491
-45.482
-45.499
-45.541
-45.609
-45.702
-45.821
-45.966
-46.137
-46.335
-46.558
-46.808
-47.085
-47.386
-47.713
-48.064
-48.439
-48.836
-49.255
-49.693
-50.149
-50.621
-51.108
-51.607
-52.117
-52.635
-53.16
-53.69
-54.223
-54.758
-55.293
-55.828
-56.36
-56.89
-57.414
-57.933
-58.446
-58.95
-59.445
-59.93
-60.403
-60.865
-61.312
-61.746
-62.164
-62.567
-62.952
-63.321
-63.673
-64.006
-64.322
-64.62
-64.901
-65.165
-65.413
-65.645
-65.863
-66.068
-66.259
-66.438
-66.607
-66.765
-66.913
-67.053
-67.185
-67.31
-67.429
-67.542
-67.652
-67.759
-67.864
-67.968
-68.073
-68.179
-68.289
-68.402
-68.521
-68.646
-68.78
-68.923
-69.076
-69.241
-69.417
-69.606
-69.807
-70.021
-70.246
-70.482
-70.728
-70.983
-71.244
-71.512
-71.783
-72.055
-72.325
-72.591
-72.85
-73.097
-73.329
-73.541
-73.729
-73.888
-74.013
-74.1
-74.143
-74.138
-74.078
-73.959
-73.775
-73.52
-73.19
-72.778
-72.279
-71.69
-71.005
-70.223
-69.338
-68.35
-67.256
-66.056
-64.75
-63.337
-61.82
-60.2
-58.48
-56.665
-54.759
-52.77
-50.704
-48.57
-46.38
-44.147
-41.881
-39.597
-37.31
-35.033
-32.783
-30.574
-28.42
-26.335
-24.333
-22.432
-20.646
-18.994
-17.49
-16.15
-14.988
-14.018
-13.252
-12.699
-12.363
-12.249
-12.36
-12.706
-13.297
-14.146
-15.254
-16.623
-18.249
-20.123
-22.23
-24.547
-27.036
-29.66
-32.383
-35.173
-38.008
-40.864
-43.709
-46.502
-49.195
-51.74
-54.106
-56.267
-58.197
-59.894
-61.368
-62.66
-63.84
-64.974
-66.119
-67.336
-68.676
-70.201
-71.989
-74.104
-76.631
-79.689
-83.324
-87.521
-92.182
-97.036
-101.779
-106.109
-109.606
-111.829
-112.48
-111.403
-108.786
-105.236
-101.345
-97.688
-94.907
-93.494
-93.788
-95.826
-98.859
-101.412
-101.901
-98.499
-89.271
-72.572
-46.8
-10.704
35.846
92.073
156.832
227.024
297.924
365.39
424.793
474.46
516.696
550.358
572.435
577.015
553.3
497.455
411.451
299.952
175.032
47.596
-72.684
-173.128
-245.341
-285.493
-293.423
-275.3
-239.669
-193.952
-146.216
-104.663
-74.959
-60.161
-58.714
-63.85
-69.493
-72.426
-72.51
-73.176
-76.43
-81.693
-87.476
-91.195
-91.531
-88.878
-83.945
-77.753
-71.34
-65.411
-60.457
-56.876
-54.773
-54.029
-54.488
-55.89
-57.862
-59.999
-61.983
-63.579
-64.681
-65.287
-65.384
-64.966
-64.053
-62.685
-60.91
-58.767
-56.278
-53.447
-50.289
-46.833
-43.122
-39.208
-35.142
-30.964
-26.703
-22.375
-17.99
-13.554
-9.069
-4.528
0.083
4.778
9.569
14.462
19.464
24.58
29.819
35.193
40.706
46.365
52.167
58.11
64.188
70.395
76.72
83.15
89.669
96.26
102.905
109.587
116.288
122.987
129.665
136.297
142.862
149.336
155.695
161.914
167.967
173.827
179.469
184.866
189.994
194.829
199.345
203.521
207.335
210.766
213.797
216.409
218.587
220.319
221.591
222.395
222.723
222.571
221.935
220.816
219.215
217.138
214.592
211.585
208.13
204.24
199.931
195.222
190.132
184.683
178.899
172.804
166.425
159.79
152.928
145.869
138.642
131.278
123.808
116.262
108.669
101.06
93.463
85.907
78.419
71.025
63.751
56.62
49.655
42.876
36.302
29.951
23.838
17.976
12.378
7.053
2.01
-2.747
-7.211
-11.38
-15.254
-18.834
-22.121
-25.12
-27.837
-30.278
-32.452
-34.369
-36.038
-37.472
-38.681
-39.679
-40.479
-41.094
-41.538
-41.825
-41.969
-41.984
-41.885
-41.686
-41.4
-41.04
-40.62
-40.151
-39.646
-39.115
-38.57
-38.019
-37.473
-36.939
-36.426
-35.941
-35.49
-35.079
-34.712
-34.393
-34.126
-33.913
-33.755
-33.654
-33.61
-33.624
-33.695
-33.823
-34.005
-34.241
-34.528
-34.864
-35.247
-35.673
-36.139
-36.643
-37.18
-37.748
-38.343
-38.962
-39.601
-40.258
-40.928
-41.609
-42.297
-42.99
-43.684
-44.377
-45.066
-45.749
-46.424
-47.089
-47.742
-48.383
-49.008
-49.619
-50.214
-50.792
-51.353
-51.896
-52.421
-52.929
-53.419
-53.892
-54.347
-54.787
-55.21
-55.619
-56.013
-56.392
-56.759
-57.112
-57.453
-57.783
-58.101
-58.408
-58.705
-58.992
-59.269
-59.536
-59.794
-60.042
-60.281
-60.509
-60.727
-60.933
-61.128
-61.309
-61.477
-61.631
-61.768
-61.889
-61.992
-62.075
-62.138
-62.178
-62.194
-62.185
-62.149
-62.085
-61.992
-61.869
-61.714
-61.527
-61.307
-61.055
-60.769
-60.451
-60.099
-59.714
-59.297
-58.849
-58.371
-57.863
-57.328
-56.766
-56.181
-55.573
-54.945
-54.3
-53.639
-52.965
-52.282
-51.592
-50.898
-50.204
-49.513
-48.827
-48.152
-47.49
-46.844
-46.219
-45.616
-45.038
-44.488
-43.969
-43.481
-43.026
-42.605
-42.218
-41.866
-41.548
-41.264
-41.011
-40.789
-40.596
-40.429
-40.286
-40.162
-40.056
-39.962
-39.878
-39.798
-39.717
-39.63
-39.533
-39.418
-39.281
-39.115
-38.914
-38.67
-38.378
-38.03
-37.621
-37.144
-36.593
-35.963
-35.248
-34.445
-33.55
-32.56
-31.474
-30.289
-29.006
-27.625
-26.148
-24.577
-22.915
-21.166
-19.336
-17.43
-15.455
-13.419
-11.332
-9.204
-7.048
-4.876
-2.703
-0.543
1.59
3.68
5.711
7.67
9.543
11.315
12.971
14.495
15.869
17.081
18.117
18.966
19.617
20.059
20.285
20.294
20.085
19.654
18.996
18.095
16.94
15.53
13.866
11.953
9.801
7.422
4.834
2.075
-0.819
-3.81
-6.866
-9.967
-13.086
-16.18
-19.197
-22.07
-24.74
-27.171
-29.338
-31.217
-32.798
-34.087
-35.111
-35.932
-36.628
-37.273
-37.942
-38.711
-39.671
-40.911
-42.566
-44.817
-47.76
-51.389
-55.576
-60.039
-64.498
-68.735
-72.422
-75.125
-76.576
-76.69
-75.761
-74.557
-73.735
-73.754
-75.053
-77.916
-82.422
-88.401
-94.916
-100.182
-102.382
-99.628
-90.142
-72.627
-45.655
-8.014
40.42
99.079
166.093
237.54
309.751
379.237
443.334
502.689
556.99
602.67
634.278
642.593
618.879
561.322
471.556
354.218
219.512
77.142
-60.706
-175.878
-255.611
-292.803
-286.666
-250.91
-202.151
-154.738
-122.701
-107.963
-105.267
-108.498
-107.786
-99.807
-87.572
-74.333
-65.266
-62.461
-64.327
-69.229
-75.082
-80.365
-84.253
-86.275
-86.43
-84.869
-81.967
-78.077
-73.39
-68.372
-63.771
-60.058
-57.459
-56.001
-55.412
-55.445
-55.936
-56.585
-57.04
-57.081
-56.576
-55.489
-53.894
-51.839
-49.347
-46.479
-43.294
-39.834
-36.139
-32.227
-28.11
-23.826
-19.425
-14.964
-10.484
-6.009
-1.55
2.889
7.306
11.71
16.116
20.545
25.011
29.524
34.09
38.716
43.412
48.19
53.061
58.038
63.131
68.343
73.678
79.136
84.711
90.397
96.182
102.053
107.996
114
120.048
126.126
132.216
138.299
144.354
150.36
156.294
162.13
167.844
173.407
178.793
183.975
188.926
193.618
198.026
202.122
205.883
209.285
212.303
214.918
217.108
218.856
220.146
220.965
221.299
221.141
220.483
219.323
217.658
215.492
212.828
209.673
206.039
201.938
197.385
192.398
186.997
181.204
175.044
168.543
161.729
154.633
147.286
139.72
131.968
124.066
116.046
107.943
99.793
91.629
83.484
75.392
67.386
59.495
51.749
44.177
36.806
29.659
22.759
16.127
9.782
3.738
-1.99
-7.391
-12.455
-17.178
-21.553
-25.579
-29.256
-32.586
-35.573
-38.223
-40.544
-42.545
-44.237
-45.632
-46.746
-47.592
-48.186
-48.546
-48.689
-48.633
-48.396
-47.997
-47.456
-46.79
-46.019
-45.16
-44.231
-43.25
-42.234
-41.198
-40.158
-39.126
-38.117
-37.142
-36.212
-35.335
-34.522
-33.78
-33.114
-32.53
-32.034
-31.627
-31.313
-31.093
-30.967
-30.936
-30.998
-31.151
-31.393
-31.72
-32.129
-32.616
-33.175
-33.803
-34.493
-35.241
-36.041
-36.887
-37.774
-38.696
-39.647
-40.621
-41.614
-42.62
-43.635
-44.654
-45.674
-46.69
-47.699
-48.699
-49.685
-50.657
-51.611
-52.545
-53.458
-54.349
-55.216
-56.059
-56.877
-57.671
-58.441
-59.187
-59.909
-60.609
-61.286
-61.942
-62.577
-63.192
-63.789
-64.368
-64.931
-65.478
-66.011
-66.53
-67.035
-67.528
-68.009
-68.479
-68.936
-69.381
-69.815
-70.237
-70.647
-71.044
-71.43
-71.802
-72.161
-72.507
-72.838
-73.155
-73.456
-73.74
-74.008
-74.258
-74.489
-74.702
-74.895
-75.069
-75.223
-75.358
-75.473
-75.569
-75.645
-75.703
-75.743
-75.766
-75.774
-75.767
-75.747
-75.716
-75.677
-75.631
-75.58
-75.527
-75.474
-75.422
-75.375
-75.335
-75.303
-75.283
-75.275
-75.283
-75.307
-75.351
-75.414
-75.499
-75.605
-75.733
-75.884
-76.056
-76.248
-76.46
-76.689
-76.933
-77.189
-77.455
-77.727
-78.001
-78.271
-78.533
-78.781
-79.008
-79.209
-79.375
-79.499
-79.575
-79.594
-79.549
-79.432
-79.235
-78.95
-78.57
-78.087
-77.494
-76.784
-75.95
-74.987
-73.889
-72.653
-71.275
-69.753
-68.084
-66.27
-64.309
-62.205
-59.96
-57.576
-55.06
-52.417
-49.654
-46.781
-43.806
-40.742
-37.6
-34.395
-31.145
-27.865
-24.573
-21.287
-18.025
-14.807
-11.651
-8.573
-5.591
-2.721
0.02
2.611
5.035
7.276
9.321
11.157
12.769
14.146
15.281
16.173
16.821
17.221
17.366
17.242
16.841
16.165
15.216
14.002
12.534
10.826
8.905
6.81
4.583
2.263
-0.117
-2.537
-4.963
-7.353
-9.657
-11.813
-13.774
-15.512
-16.997
-18.212
-19.157
-19.844
-20.313
-20.635
-20.873
-21.103
-21.401
-21.834
-22.49
-23.444
-24.8
-26.711
-29.241
-32.372
-35.987
-39.816
-43.567
-47.003
-49.788
-51.506
-51.896
-50.86
-48.646
-45.903
-43.27
-41.265
-40.322
-40.787
-42.825
-46.271
-50.258
-53.251
-53.465
-49.014
-38.311
-19.96
7.437
44.797
92.16
148.892
212.521
278.911
344.677
406.002
461.343
512.191
556.473
590.112
605.956
593.492
548.952
474.662
376.57
263.807
142.543
18.556
-99.925
-201.84
-274.377
-311.233
-312.091
-282.754
-235.885
-180.827
-126.726
-84.02
-55.495
-41.971
-40.749
-42.491
-42.498
-39.692
-34.891
-32.727
-34.814
-39.547
-44.687
-47.369
-46.46
-42.406
-35.893
-27.89
-19.232
-10.681
-3.23
2.488
6.274
8.133
8.338
7.232
5.163
2.576
-0.03
-2.338
-4.197
-5.543
-6.413
-6.809
-6.697
-6.069
-4.917
-3.226
-0.991
1.783
5.078
8.822
12.904
17.218
21.661
26.163
30.688
35.211
39.72
44.211
48.682
53.132
57.548
61.918
66.231
70.486
74.695
78.885
83.096
87.364
91.724
96.2
100.805
105.543
110.412
115.402
120.498
125.684
130.95
136.284
141.68
147.126
152.606
158.102
163.591
169.05
174.455
179.778
184.995
190.081
195.011
199.763
204.316
208.647
212.736
216.559
220.093
223.315
226.204
228.738
230.896
232.66
234.013
234.941
235.431
235.473
235.058
234.181
232.839
231.03
228.756
226.021
222.829
219.189
215.113
210.611
205.701
200.398
194.722
188.694
182.338
175.678
168.741
161.555
154.149
146.551
138.792
130.903
122.915
114.858
106.765
98.666
90.592
82.573
74.637
66.814
59.129
51.607
44.273
37.147
30.249
23.599
17.211
11.101
5.282
-0.238
-5.447
-10.341
-14.915
-19.165
-23.091
-26.695
-29.98
-32.95
-35.611
-37.972
-40.042
-41.831
-43.35
-44.613
-45.632
-46.423
-46.999
-47.378
-47.573
-47.603
-47.482
-47.227
-46.854
-46.379
-45.817
-45.184
-44.493
-43.759
-42.995
-42.213
-41.425
-40.643
-39.877
-39.135
-38.427
-37.76
-37.141
-36.576
-36.07
-35.627
-35.25
-34.942
-34.706
-34.541
-34.449
-34.43
-34.484
-34.609
-34.804
-35.066
-35.394
-35.785
-36.236
-36.744
-37.306
-37.917
-38.575
-39.277
-40.018
-40.794
-41.603
-42.441
-43.303
-44.187
-45.089
-46.006
-46.935
-47.873
-48.816
-49.763
-50.71
-51.656
-52.598
-53.534
-54.461
-55.378
-56.283
-57.175
-58.05
-58.909
-59.748
-60.568
-61.367
-62.143
-62.896
-63.624
-64.327
-65.004
-65.655
-66.278
-66.875
-67.444
-67.985
-68.5
-68.988
-69.449
-69.885
-70.296
-70.683
-71.047
-71.388
-71.708
-72.009
-72.291
-72.556
-72.805
-73.041
-73.265
-73.478
-73.684
-73.882
-74.076
-74.268
-74.458
-74.65
-74.844
-75.042
-75.247
-75.458
-75.679
-75.909
-76.149
-76.4
-76.661
-76.932
-77.212
-77.501
-77.796
-78.097
-78.4
-78.705
-79.008
-79.306
-79.596
-79.875
-80.139
-80.383
-80.604
-80.796
-80.955
-81.075
-81.152
-81.18
-81.155
-81.072
-80.924
-80.708
-80.418
-80.05
-79.599
-79.061
-78.431
-77.707
-76.886
-75.965
-74.944
-73.821
-72.596
-71.271
-69.847
-68.326
-66.711
-65.006
-63.216
-61.346
-59.403
-57.394
-55.328
-53.214
-51.062
-48.886
-46.699
-44.514
-42.346
-40.209
-38.119
-36.09
-34.139
-32.277
-30.517
-28.873
-27.357
-25.985
-24.77
-23.725
-22.86
-22.187
-21.713
-21.447
-21.393
-21.549
-21.915
-22.49
-23.28
-24.293
-25.54
-27.019
-28.731
-30.668
-32.82
-35.172
-37.703
-40.372
-43.145
-45.984
-48.86
-51.753
-54.637
-57.477
-60.232
-62.847
-65.271
-67.472
-69.416
-71.082
-72.467
-73.581
-74.461
-75.168
-75.768
-76.324
-76.907
-77.583
-78.429
-79.52
-80.952
-82.867
-85.357
-88.439
-92.036
-95.904
-99.737
-103.229
-105.992
-107.572
-107.665
-106.166
-103.295
-99.736
-96.301
-93.767
-92.951
-94.534
-98.817
-105.643
-114.128
-122.526
-128.713
-130.391
-125.067
-110.44
-84.81
-47.044
2.948
63.987
134.291
210.306
286.678
358.418
420.438
470.408
509.724
537.092
550.703
546.518
515.395
454.573
364.194
245.888
111.246
-27.758
-157.972
-261.433
-327.631
-354.478
-344.453
-307.962
-258.381
-203.507
-151.444
-110.904
-83.754
-71.637
-72.831
-78.373
-83.821
-87.434
-88.694
-91.676
-97.613
-104.7
-111.299
-114.923
-114.523
-110.81
-104.652
-97.081
-89.146
-81.731
-75.5
-70.806
-67.713
-66.048
-65.536
-65.922
-66.853
-67.882
-68.677
-69.049
-68.922
-68.329
-67.311
-65.86
-63.989
-61.751
-59.187
-56.331
-53.207
-49.809
-46.147
-42.257
-38.183
-33.981
-29.704
-25.38
-21.025
-16.65
-12.259
-7.854
-3.437
1.007
5.494
10.039
14.652
19.341
24.111
28.975
33.948
39.043
44.269
49.632
55.132
60.766
66.533
72.425
78.432
84.54
90.733
96.996
103.311
109.662
116.03
122.395
128.734
135.025
141.244
147.368
153.369
159.222
164.899
170.374
175.62
180.611
185.32
189.721
193.79
197.504
200.841
203.778
206.297
208.379
210.009
211.173
211.86
212.061
211.769
210.979
209.691
207.907
205.631
202.869
199.631
195.929
191.778
187.195
182.198
176.808
171.049
164.944
158.52
151.806
144.83
137.622
130.213
122.635
114.919
107.098
99.204
91.267
83.321
75.394
67.517
59.719
52.028
44.469
37.067
29.846
22.828
16.031
9.472
3.168
-2.869
-8.627
-14.099
-19.276
-24.155
-28.732
-33.007
-36.98
-40.654
-44.033
-47.123
-49.931
-52.465
-54.734
-56.75
-58.524
-60.067
-61.392
-62.512
-63.441
-64.193
-64.781
-65.219
-65.521
-65.699
-65.769
-65.741
-65.629
-65.444
-65.197
-64.898
-64.557
-64.182
-63.781
-63.36
-62.925
-62.482
-62.034
-61.585
-61.138
-60.695
-60.258
-59.827
-59.404
-58.988
-58.578
-58.175
-57.777
-57.384
-56.993
-56.605
-56.219
-55.832
-55.444
-55.055
-54.663
-54.268
-53.87
-53.467
-53.06
-52.649
-52.234
-51.817
-51.397
-50.977
-50.558
-50.141
-49.728
-49.322
-48.924
-48.537
-48.163
-47.804
-47.462
-47.14
-46.84
-46.563
-46.312
-46.088
-45.893
-45.726
-45.59
-45.484
-45.408
-45.362
-45.345
-45.357
-45.396
-45.46
-45.548
-45.658
-45.789
-45.937
-46.101
-46.278
-46.465
-46.66
-46.86
-47.063
-47.266
-47.466
-47.662
-47.852
-48.033
-48.204
-48.364
-48.511
-48.644
-48.762
-48.865
-48.953
-49.026
-49.085
-49.13
-49.163
-49.185
-49.199
-49.205
-49.206
-49.205
-49.204
-49.205
-49.211
-49.224
-49.247
-49.281
-49.329
-49.392
-49.471
-49.568
-49.683
-49.817
-49.969
-50.139
-50.325
-50.526
-50.741
-50.966
-51.199
-51.437
-51.675
-51.911
-52.138
-52.351
-52.547
-52.718
-52.859
-52.963
-53.025
-53.038
-52.995
-52.889
-52.715
-52.466
-52.136
-51.719
-51.21
-50.604
-49.897
-49.085
-48.166
-47.138
-45.999
-44.749
-43.39
-41.923
-40.35
-38.676
-36.905
-35.043
-33.097
-31.074
-28.985
-26.839
-24.649
-22.429
-20.193
-17.956
-15.734
-13.543
-11.401
-9.322
-7.321
-5.415
-3.617
-1.944
-0.412
0.962
2.164
3.181
4.001
4.612
5.004
5.169
5.107
4.815
4.289
3.526
2.512
1.239
-0.293
-2.086
-4.131
-6.418
-8.937
-11.663
-14.561
-17.595
-20.726
-23.921
-27.154
-30.392
-33.597
-36.719
-39.697
-42.476
-45.014
-47.278
-49.245
-50.905
-52.259
-53.334
-54.183
-54.873
-55.482
-56.086
-56.759
-57.593
-58.669
-60.105
-62.064
-64.642
-67.864
-71.655
-75.802
-80.065
-84.243
-88.018
-90.975
-92.823
-93.397
-92.827
-91.621
-90.282
-89.222
-88.906
-89.767
-92.039
-95.691
-100.14
-104.108
-106.128
-104.584
-97.764
-84.044
-61.745
-29.441
13.608
67.446
130.715
200.43
273.292
345.637
415.25
482.332
545.92
603.469
648.117
669.488
660.06
615.242
537.95
435.448
312.662
178.109
39.849
-92.303
-200.623
-272.827
-303.205
-291.518
-251.778
-200.168
-149.944
-114.811
-96.999
-92.181
-94.86
-95.093
-89.225
-79.207
-67.65
-59.78
-57.655
-59.858
-64.915
-70.513
-74.977
-77.795
-78.755
-78.031
-75.97
-72.897
-69.068
-64.732
-60.391
-56.659
-53.889
-52.22
-51.567
-51.669
-52.314
-53.317
-54.388
-55.202
-55.546
-55.304
-54.46
-53.076
-51.195
-48.841
-46.061
-42.916
-39.454
-35.714
-31.721
-27.492
-23.063
-18.485
-13.808
-9.074
-4.306
0.484
5.291
10.115
14.96
19.841
24.772
29.763
34.821
39.951
45.155
50.438
55.809
61.271
66.831
72.491
78.251
84.106
90.051
96.073
102.162
108.301
114.474
120.665
126.857
133.032
139.173
145.261
151.275
157.195
163
168.667
174.172
179.493
184.605
189.485
194.111
198.459
202.508
206.236
209.623
212.651
215.3
217.554
219.399
220.82
221.807
222.35
222.442
222.077
221.252
219.968
218.224
216.026
213.379
210.291
206.774
202.838
198.5
193.775
188.682
183.241
177.474
171.402
165.052
158.448
151.616
144.584
137.38
130.031
122.567
115.015
107.405
99.765
92.122
84.503
76.935
69.444
62.053
54.786
47.664
40.708
33.936
27.367
21.016
14.896
9.021
3.401
-1.954
-7.038
-11.844
-16.368
-20.609
-24.564
-28.235
-31.623
-34.731
-37.565
-40.129
-42.43
-44.476
-46.276
-47.84
-49.177
-50.299
-51.218
-51.945
-52.493
-52.874
-53.102
-53.189
-53.148
-52.992
-52.733
-52.383
-51.956
-51.463
-50.916
-50.325
-49.703
-49.058
-48.4
-47.74
-47.085
-46.444
-45.824
-45.231
-44.673
-44.154
-43.68
-43.254
-42.881
-42.563
-42.303
-42.103
-41.963
-41.885
-41.868
-41.912
-42.016
-42.179
-42.399
-42.675
-43.005
-43.386
-43.815
-44.29
-44.807
-45.362
-45.953
-46.575
-47.224
-47.897
-48.589
-49.298
-50.018
-50.746
-51.478
-52.211
-52.941
-53.665
-54.38
-55.083
-55.772
-56.444
-57.097
-57.731
-58.343
-58.933
-59.5
-60.043
-60.563
-61.058
-61.529
-61.977
-62.401
-62.802
-63.181
-63.539
-63.876
-64.195
-64.497
-64.783
-65.054
-65.312
-65.56
-65.799
-66.03
-66.255
-66.477
-66.696
-66.915
-67.135
-67.357
-67.582
-67.812
-68.047
-68.288
-68.536
-68.791
-69.052
-69.321
-69.596
-69.879
-70.168
-70.463
-70.764
-71.07
-71.382
-71.698
-72.017
-72.338
-72.66
-72.982
-73.302
-73.618
-73.929
-74.233
-74.526
-74.809
-75.077
-75.329
-75.562
-75.773
-75.96
-76.12
-76.249
-76.346
-76.405
-76.426
-76.403
-76.336
-76.22
-76.052
-75.829
-75.548
-75.206
-74.799
-74.325
-73.78
-73.161
-72.466
-71.693
-70.84
-69.905
-68.888
-67.787
-66.603
-65.335
-63.987
-62.559
-61.053
-59.474
-57.824
-56.111
-54.339
-52.514
-50.644
-48.735
-46.798
-44.846
-42.891
-40.947
-39.026
-37.144
-35.314
-33.552
-31.868
-30.275
-28.781
-27.398
-26.14
-25.02
-24.052
-23.251
-22.627
-22.187
-21.938
-21.88
-22.01
-22.327
-22.83
-23.522
-24.416
-25.522
-26.846
-28.395
-30.167
-32.154
-34.34
-36.689
-39.161
-41.729
-44.377
-47.102
-49.9
-52.734
-55.553
-58.304
-60.929
-63.404
-65.689
-67.699
-69.403
-70.866
-72.251
-73.773
-75.551
-77.524
-79.599
-81.801
-84.125
-86.473
-88.546
-89.987
-90.776
-91.236
-91.824
-92.732
-93.9
-95.292
-97.119
-99.657
-102.762
-105.881
-108.288
-109.787
-110.829
-111.944
-113.46
-115.418
-117.954
-121.466
-126.267
-131.761
-136.374
-138.034
-134.499
-124.03
-105.107
-75.999
-35.396
16.884
80.073
151.259
225.488
298.56
366.037
425.085
476.709
520.036
552.235
569.102
560.949
519.993
444.343
334.637
199.586
53.196
-90.961
-216.647
-309.716
-363.416
-376.117
-352.515
-305.364
-247.983
-192.973
-153.244
-132.271
-127.622
-133.496
-138.176
-135.95
-126.912
-113.362
-101.696
-94.689
-91.106
-89.457
-87.516
-84.496
-81.076
-77.479
-73.666
-69.78
-66.076
-62.961
-60.599
-58.747
-57.1
-55.588
-54.464
-53.864
-53.646
-53.519
-53.233
-52.781
-52.237
-51.577
-50.623
-49.186
-47.179
-44.602
-41.498
-37.886
-33.777
-29.228
-24.332
-19.19
-13.89
-8.499
-3.064
2.385
7.831
13.274
18.716
24.155
29.587
35.002
40.393
45.761
51.122
56.5
61.912
67.377
72.911
78.532
84.258
90.098
96.048
102.096
108.228
114.434
120.707
127.036
133.411
139.817
146.236
152.652
159.046
165.398
171.687
177.887
183.974
189.922
195.71
201.314
206.713
211.883
216.799
221.439
225.781
229.802
233.48
236.795
239.725
242.253
244.36
246.034
247.261
248.029
248.329
248.154
247.5
246.364
244.746
242.648
240.073
237.029
233.525
229.572
225.183
220.374
215.164
209.572
203.619
197.331
190.731
183.847
176.707
169.34
161.775
154.042
146.173
138.199
130.149
122.057
113.952
105.865
97.825
89.861
82
74.27
66.694
59.298
52.102
45.128
38.395
31.92
25.719
19.805
14.19
8.885
3.897
-0.767
-5.103
-9.109
-12.784
-16.129
-19.147
-21.843
-24.223
-26.293
-28.063
-29.541
-30.74
-31.671
-32.346
-32.778
-32.982
-32.972
-32.761
-32.366
-31.801
-31.08
-30.219
-29.233
-28.136
-26.942
-25.667
-24.322
-22.922
-21.48
-20.007
-18.516
-17.017
-15.521
-14.037
-12.574
-11.141
-9.745
-8.392
-7.089
-5.839
-4.648
-3.52
-2.456
-1.46
-0.532
0.325
1.111
1.826
2.47
3.042
3.545
3.979
4.345
4.644
4.879
5.05
5.162
5.214
5.211
5.155
5.048
4.894
4.695
4.454
4.174
3.858
3.509
3.13
2.723
2.292
1.838
1.364
0.872
0.363
-0.161
-0.698
-1.247
-1.808
-2.378
-2.957
-3.543
-4.136
-4.735
-5.34
-5.948
-6.56
-7.176
-7.794
-8.414
-9.035
-9.658
-10.282
-10.907
-11.533
-12.158
-12.785
-13.412
-14.041
-14.67
-15.299
-15.93
-16.56
-17.189
-17.817
-18.442
-19.062
-19.676
-20.282
-20.878
-21.462
-22.03
-22.58
-23.11
-23.616
-24.094
-24.541
-24.954
-25.327
-25.656
-25.939
-26.17
-26.347
-26.463
-26.517
-26.502
-26.417
-26.255
-26.014
-25.689
-25.276
-24.772
-24.175
-23.482
-22.691
-21.802
-20.814
-19.728
-18.545
-17.269
-15.9
-14.442
-12.901
-11.282
-9.59
-7.833
-6.02
-4.16
-2.267
-0.352
1.571
3.489
5.386
7.25
9.065
10.817
12.494
14.083
15.57
16.942
18.182
19.274
20.206
20.962
21.533
21.907
22.073
22.024
21.761
21.282
20.584
19.66
18.498
17.087
15.428
13.524
11.38
9.009
6.423
3.648
0.721
-2.319
-5.44
-8.611
-11.819
-15.042
-18.244
-21.384
-24.408
-27.271
-29.949
-32.42
-34.664
-36.673
-38.459
-40.054
-41.52
-42.922
-44.313
-45.747
-47.277
-48.968
-50.885
-53.123
-55.807
-59.004
-62.701
-66.798
-71.061
-75.234
-79.091
-82.312
-84.505
-85.425
-84.982
-83.397
-81.315
-79.338
-77.955
-77.697
-78.922
-81.772
-86.185
-91.423
-95.971
-98.274
-96.668
-89.404
-75.171
-52.798
-21.23
19.719
69.299
126.538
188.971
252.542
313.679
368.375
414.254
452.995
485.114
509.377
522.961
516.703
482.028
415.277
314.32
186.613
46.786
-90.522
-205.128
-281.629
-315.314
-306.18
-267.042
-216.12
-167.674
-135.318
-121.666
-120.704
-125.434
-125.972
-118.821
-106.862
-93.529
-84.087
-80.587
-81.341
-84.684
-88.399
-90.858
-91.721
-90.905
-88.483
-84.758
-80.149
-74.956
-69.569
-64.603
-60.477
-57.401
-55.496
-54.631
-54.55
-55.06
-55.879
-56.633
-57.093
-57.124
-56.648
-55.698
-54.303
-52.467
-50.238
-47.682
-44.838
-41.741
-38.41
-34.845
-31.072
-27.135
-23.083
-18.969
-14.824
-10.662
-6.494
-2.319
1.864
6.062
10.293
14.578
18.928
23.353
27.859
32.45
37.134
41.921
46.82
51.838
56.978
62.24
67.62
73.112
78.705
84.388
90.145
95.958
101.81
107.683
113.56
119.422
125.247
131.014
136.7
142.283
147.737
153.037
158.159
163.075
167.761
172.192
176.343
180.189
183.708
186.878
189.677
192.088
194.091
195.671
196.814
197.508
197.744
197.513
196.81
195.634
193.982
191.858
189.267
186.214
182.71
178.766
174.396
169.618
164.45
158.911
153.024
146.813
140.304
133.523
126.497
119.258
111.833
104.255
96.553
88.759
80.904
73.02
65.136
57.282
49.487
41.78
34.187
26.733
19.443
12.339
5.442
-1.228
-7.654
-13.821
-19.713
-25.321
-30.634
-35.644
-40.346
-44.736
-48.813
-52.575
-56.026
-59.168
-62.006
-64.547
-66.798
-68.768
-70.469
-71.911
-73.107
-74.071
-74.815
-75.355
-75.706
-75.882
-75.898
-75.771
-75.514
-75.144
-74.674
-74.119
-73.494
-72.812
-72.086
-71.328
-70.551
-69.765
-68.98
-68.206
-67.451
-66.722
-66.026
-65.369
-64.756
-64.19
-63.675
-63.214
-62.807
-62.457
-62.162
-61.922
-61.737
-61.604
-61.522
-61.487
-61.498
-61.551
-61.643
-61.772
-61.934
-62.126
-62.345
-62.587
-62.849
-63.128
-63.421
-63.725
-64.037
-64.355
-64.677
-65.002
-65.326
-65.65
-65.971
-66.29
-66.606
-66.918
-67.228
-67.535
-67.841
-68.146
-68.453
-68.762
-69.076
-69.396
-69.724
-70.062
-70.411
-70.773
-71.148
-71.539
-71.945
-72.368
-72.806
-73.26
-73.73
-74.214
-74.711
-75.219
-75.736
-76.26
-76.788
-77.317
-77.844
-78.365
-78.876
-79.373
-79.852
-80.306
-80.731
-81.121
-81.469
-81.77
-82.017
-82.205
-82.326
-82.374
-82.344
-82.23
-82.025
-81.725
-81.325
-80.819
-80.205
-79.48
-78.64
-77.686
-76.616
-75.43
-74.13
-72.717
-71.196
-69.569
-67.84
-66.016
-64.101
-62.104
-60.032
-57.894
-55.7
-53.461
-51.193
-48.907
-46.621
-44.348
-42.105
-39.908
-37.774
-35.718
-33.754
-31.896
-30.159
-28.556
-27.105
-25.822
-24.717
-23.805
-23.096
-22.599
-22.323
-22.273
-22.448
-22.846
-23.47
-24.322
-25.417
-26.762
-28.357
-30.199
-32.281
-34.592
-37.119
-39.838
-42.71
-45.696
-48.759
-51.869
-55.006
-58.146
-61.25
-64.269
-67.145
-69.827
-72.284
-74.492
-76.426
-78.081
-79.465
-80.614
-81.591
-82.468
-83.313
-84.191
-85.173
-86.341
-87.781
-89.608
-91.986
-95
-98.651
-102.833
-107.282
-111.715
-115.883
-119.432
-121.926
-123.082
-122.794
-121.332
-119.447
-117.832
-117.041
-117.638
-120.023
-124.38
-130.612
-137.798
-144.122
-147.695
-146.565
-138.797
-122.782
-96.988
-60.335
-12.788
44.619
110.25
181.857
255.696
326.832
390.272
441.128
478.433
504.987
521.609
528.841
521.503
487.913
421.217
317.064
180.28
29.327
-115.662
-233.268
-308.502
-340.641
-337.668
-313.521
-282.151
-252.523
-227.368
-205.851
-186.488
-166.564
-146.192
-126.813
-109.32
-96.664
-89.733
-87.81
-90.626
-96.009
-102.283
-108.618
-113.387
-115.919
-116.281
-114.388
-110.665
-105.768
-100.053
-94.115
-88.852
-84.726
-81.899
-80.409
-79.967
-80.252
-81.06
-82.055
-82.842
-83.213
-83.048
-82.31
-81.08
-79.408
-77.312
-74.852
-72.085
-69.045
-65.766
-62.258
-58.532
-54.62
-50.566
-46.416
-42.203
-37.944
-33.642
-29.299
-24.907
-20.46
-15.94
-11.33
-6.618
-1.798
3.135
8.182
13.351
18.647
24.077
29.645
35.353
41.198
47.174
53.271
59.475
65.769
72.135
78.552
84.999
91.456
97.901
104.312
110.666
116.939
123.104
129.138
135.011
140.698
146.171
151.401
156.363
161.03
165.377
169.38
173.015
176.263
179.102
181.515
183.486
185.001
186.05
186.622
186.711
186.314
185.428
184.057
182.202
179.872
177.075
173.823
170.131
166.014
161.491
156.582
151.311
145.701
139.777
133.568
127.101
120.406
113.514
106.456
99.265
91.972
84.61
77.21
69.804
62.423
55.096
47.854
40.722
33.728
26.895
20.247
13.805
7.588
1.612
-4.107
-9.556
-14.725
-19.605
-24.189
-28.473
-32.452
-36.127
-39.498
-42.567
-45.338
-47.817
-50.011
-51.927
-53.575
-54.966
-56.112
-57.024
-57.717
-58.205
-58.501
-58.622
-58.583
-58.398
-58.084
-57.655
-57.126
-56.512
-55.827
-55.084
-54.296
-53.476
-52.633
-51.78
-50.926
-50.081
-49.251
-48.446
-47.671
-46.934
-46.239
-45.592
-44.996
-44.455
-43.972
-43.548
-43.186
-42.887
-42.65
-42.475
-42.362
-42.309
-42.314
-42.374
-42.486
-42.648
-42.855
-43.105
-43.392
-43.712
-44.062
-44.437
-44.833
-45.247
-45.673
-46.107
-46.546
-46.986
-47.422
-47.851
-48.269
-48.673
-49.058
-49.423
-49.764
-50.077
-50.362
-50.614
-50.832
-51.015
-51.161
-51.268
-51.336
-51.364
-51.352
-51.3
-51.211
-51.085
-50.924
-50.73
-50.506
-50.255
-49.98
-49.685
-49.372
-49.045
-48.708
-48.366
-48.023
-47.683
-47.351
-47.03
-46.725
-46.442
-46.183
-45.951
-45.749
-45.58
-45.447
-45.349
-45.287
-45.263
-45.276
-45.329
-45.42
-45.551
-45.72
-45.925
-46.165
-46.438
-46.738
-47.057
-47.388
-47.723
-48.054
-48.376
-48.68
-48.957
-49.199
-49.399
-49.551
-49.649
-49.682
-49.633
-49.484
-49.226
-48.857
-48.384
-47.81
-47.135
-46.36
-45.493
-44.548
-43.53
-42.435
-41.242
-39.93
-38.488
-36.921
-35.247
-33.485
-31.64
-29.699
-27.649
-25.488
-23.221
-20.844
-18.339
-15.676
-12.855
-9.91
-6.916
-3.942
-1.034
1.782
4.499
7.097
9.541
11.785
13.788
15.528
16.98
18.107
18.848
19.133
18.935
18.282
17.24
15.868
14.187
12.204
9.918
7.346
4.521
1.477
-1.754
-5.149
-8.665
-12.249
-15.842
-19.368
-22.774
-26.034
-29.128
-32.03
-34.72
-37.135
-39.197
-40.902
-42.271
-43.421
-44.583
-45.855
-47.232
-48.72
-50.284
-51.864
-53.419
-54.651
-55.05
-54.521
-53.242
-51.531
-49.864
-48.449
-47.335
-46.92
-47.753
-49.88
-53.072
-56.822
-60.539
-64.347
-68.573
-73.243
-78.311
-83.804
-89.754
-96.324
-103.266
-109.18
-112.349
-110.894
-102.751
-86.256
-59.85
-21.989
27.917
89.096
160.282
238.336
318.316
395.986
466.436
526.191
575.676
613.765
638.098
646.033
629.965
583.671
505.326
393.632
255.519
105.282
-40.7
-161.736
-243.26
-283.057
-287.36
-269.458
-241.122
-208.123
-172.535
-136.023
-103.939
-81.483
-71.655
-72.92
-77.624
-80.145
-78.14
-72.353
-67.39
-65.383
-65.849
-67.438
-67.582
-65.324
-61.173
-55.577
-49.271
-42.807
-36.482
-30.917
-26.678
-23.975
-22.84
-23.106
-24.463
-26.6
-29.175
-31.759
-34.037
-35.85
-37.105
-37.798
-37.946
-37.547
-36.622
-35.214
-33.323
-30.909
-27.959
-24.474
-20.509
-16.179
-11.584
-6.806
-1.911
3.056
8.062
13.082
18.112
23.173
28.28
33.445
38.659
43.892
49.128
54.37
59.631
64.944
70.332
75.81
81.392
87.092
92.915
98.861
104.914
111.047
117.236
123.461
129.703
135.951
142.189
148.393
154.542
160.61
166.572
172.402
178.072
183.551
188.809
193.82
198.559
203.006
207.139
210.935
214.374
217.435
220.1
222.352
224.175
225.554
226.475
226.928
226.906
226.403
225.417
223.946
221.992
219.561
216.659
213.296
209.484
205.237
200.572
195.508
190.065
184.267
178.137
171.701
164.987
158.023
150.838
143.464
135.931
128.27
120.513
112.691
104.835
96.974
89.139
81.357
73.658
66.068
58.613
51.316
44.2
37.286
30.593
24.139
17.939
12.005
6.35
0.981
-4.092
-8.866
-13.337
-17.503
-21.365
-24.925
-28.185
-31.152
-33.831
-36.23
-38.359
-40.226
-41.842
-43.22
-44.371
-45.308
-46.045
-46.594
-46.969
-47.183
-47.251
-47.185
-47
-46.707
-46.321
-45.852
-45.314
-44.718
-44.073
-43.391
-42.681
-41.951
-41.21
-40.464
-39.72
-38.985
-38.262
-37.557
-36.873
-36.215
-35.584
-34.983
-34.415
-33.88
-33.379
-32.913
-32.482
-32.087
-31.727
-31.401
-31.11
-30.853
-30.628
-30.436
-30.275
-30.144
-30.042
-29.967
-29.918
-29.894
-29.894
-29.917
-29.961
-30.025
-30.109
-30.211
-30.332
-30.469
-30.623
-30.793
-30.978
-31.179
-31.393
-31.622
-31.865
-32.12
-32.389
-32.67
-32.963
-33.268
-33.583
-33.908
-34.242
-34.584
-34.933
-35.288
-35.648
-36.011
-36.378
-36.746
-37.114
-37.482
-37.847
-38.21
-38.567
-38.918
-39.261
-39.595
-39.918
-40.228
-40.523
-40.801
-41.059
-41.297
-41.511
-41.699
-41.858
-41.987
-42.082
-42.142
-42.164
-42.145
-42.084
-41.978
-41.825
-41.623
-41.371
-41.066
-40.706
-40.292
-39.82
-39.289
-38.699
-38.047
-37.332
-36.553
-35.708
-34.796
-33.816
-32.767
-31.648
-30.459
-29.198
-27.867
-26.466
-24.993
-23.452
-21.841
-20.162
-18.417
-16.607
-14.733
-12.799
-10.806
-8.757
-6.655
-4.503
-2.303
-0.06
2.223
4.542
6.894
9.273
11.674
14.093
16.522
18.955
21.386
23.803
26.198
28.561
30.881
33.148
35.351
37.479
39.523
41.474
43.324
45.065
46.69
48.187
49.548
50.763
51.825
52.726
53.461
54.022
54.403
54.608
54.635
54.483
54.151
53.624
52.892
51.953
50.806
49.455
47.911
46.185
44.298
42.286
40.186
38.031
35.854
33.671
31.501
29.376
27.331
25.413
23.668
22.118
20.779
19.667
18.772
18.069
17.509
17.003
16.477
15.863
15.086
14.083
12.78
11.087
8.942
6.249
2.875
-1.218
-5.995
-11.315
-16.851
-22.256
-27.231
-31.376
-34.253
-35.593
-35.282
-33.592
-31.222
-28.839
-26.962
-26.013
-26.302
-27.956
-30.791
-33.862
-35.527
-34.004
-27.541
-14.654
5.996
35.589
74.715
123.109
179.675
242.639
309.826
377.769
441.487
496.37
538.193
566.62
585.162
595.223
597.46
586.038
548.718
477.87
368.449
226.252
71.329
-75.562
-191.875
-262.17
-287.173
-272.88
-232.029
-180.591
-128.045
-83.485
-52.656
-34.58
-27.019
-24.162
-20.142
-13.723
-5.893
0.363
3.044
3.074
2.815
5.136
11.317
21.008
33.072
45.581
56.751
65.119
69.126
67.721
61.688
53.267
44.706
38.692
35.695
33.317
31.92
31.747
30.588
25.441
7.628
-27.417
-63.406
-65.555
5.713
162.593
347.47
435.836
289.682
-166.292
-865.462
-1596.279
-2094.499
-2161.734
-1773.343
-1096.126
-389.482
116.376
319.195
270.387
103.85
-49.282
-117.499
-104.865
-55.377
-10.163
11.713
13.535
8.689
5.374
