Name,Kevin Dejbod
Date of Birth,"27 Sep 1999"
Recorded Date,2023-09-28 09:13:17 +0800
Classification,Sinus Rhythm
Symptoms,
Software Version,1.90
Device,"Watch5,1"
Sample Rate,512.508 hertz


Lead,Lead I
Unit,µV

79.806
90.26
98.225
103.274
104.989
103.135
97.752
89.165
78.128
65.793
53.19
41.046
29.93
20.217
12.087
5.577
0.439
-3.885
-7.883
-11.801
-15.746
-19.671
-23.469
-27.061
-30.296
-32.936
-34.832
-35.949
-36.331
-36.123
-35.483
-34.529
-33.389
-32.174
-30.947
-29.76
-28.653
-27.636
-26.721
-25.921
-25.239
-24.684
-24.264
-23.973
-23.798
-23.714
-23.689
-23.693
-23.696
-23.677
-23.629
-23.545
-23.425
-23.269
-23.083
-22.873
-22.65
-22.416
-22.175
-21.928
-21.679
-21.433
-21.197
-20.976
-20.777
-20.603
-20.457
-20.338
-20.245
-20.174
-20.123
-20.087
-20.058
-20.033
-20.009
-19.98
-19.945
-19.9
-19.84
-19.763
-19.664
-19.539
-19.384
-19.194
-18.964
-18.69
-18.367
-17.991
-17.559
-17.068
-16.515
-15.898
-15.215
-14.465
-13.646
-12.758
-11.802
-10.778
-9.688
-8.534
-7.318
-6.046
-4.719
-3.342
-1.919
-0.456
1.042
2.57
4.122
5.691
7.27
8.852
10.43
11.996
13.542
15.06
16.541
17.978
19.361
20.683
21.934
23.104
24.186
25.168
26.042
26.797
27.422
27.909
28.248
28.429
28.441
28.274
27.92
27.372
26.621
25.661
24.488
23.096
21.484
19.649
17.592
15.314
12.815
10.098
7.168
4.037
0.718
-2.774
-6.428
-10.238
-14.193
-18.283
-22.497
-26.82
-31.242
-35.747
-40.312
-44.9
-49.465
-53.966
-58.37
-62.662
-66.834
-70.867
-74.728
-78.375
-81.758
-84.836
-87.587
-89.963
-91.9
-93.408
-94.559
-95.504
-96.489
-97.696
-99.224
-101.212
-103.769
-106.828
-110.246
-113.706
-116.698
-118.903
-120.094
-119.93
-118.238
-115.096
-110.689
-105.529
-100.352
-95.602
-91.77
-89.619
-89.688
-92.319
-97.673
-105.325
-114.503
-124.661
-134.97
-143.858
-149.631
-149.837
-141.354
-122.621
-92.845
-52.086
-2.347
56.131
124.088
201.423
288.851
384.362
483.092
579.974
668.084
738.496
782.77
793.55
764.971
698.312
599.155
472.752
329.04
177.496
28.011
-102.286
-199.964
-257.488
-272.541
-256.683
-225.675
-192.362
-168.905
-157.466
-153.671
-153.109
-148.373
-136.74
-120.64
-103.109
-89.338
-81.854
-79.705
-81.308
-84.262
-87.059
-89.246
-90.317
-89.803
-87.474
-83.407
-77.987
-71.755
-65.264
-59.036
-53.636
-49.691
-47.533
-47.174
-48.503
-51.223
-55.011
-59.585
-64.573
-69.57
-74.313
-78.602
-82.271
-85.239
-87.401
-88.665
-89.04
-88.549
-87.224
-85.132
-82.329
-78.901
-74.986
-70.706
-66.171
-61.485
-56.719
-51.966
-47.337
-42.909
-38.75
-34.896
-31.323
-27.993
-24.851
-21.784
-18.682
-15.424
-11.863
-7.895
-3.431
1.618
7.317
13.74
20.969
29.061
38.075
48.051
58.98
70.818
83.477
96.809
110.663
124.891
139.323
153.813
168.223
182.406
196.227
209.547
222.218
234.076
244.942
254.639
263.012
269.956
275.419
279.396
281.895
282.923
282.508
280.684
277.485
272.953
267.123
260.035
251.747
242.36
232.005
220.823
208.969
196.567
183.71
170.48
156.948
143.195
129.292
115.303
101.302
87.379
73.641
60.21
47.195
34.667
22.68
11.283
0.497
-9.65
-19.123
-27.902
-35.965
-43.297
-49.891
-55.738
-60.847
-65.258
-69.036
-72.272
-75.054
-77.443
-79.505
-81.303
-82.881
-84.285
-85.549
-86.692
-87.731
-88.685
-89.568
-90.393
-91.161
-91.859
-92.451
-92.89
-93.134
-93.157
-92.937
-92.45
-91.687
-90.639
-89.316
-87.738
-85.927
-83.901
-81.683
-79.292
-76.754
-74.102
-71.375
-68.614
-65.857
-63.133
-60.467
-57.883
-55.399
-53.031
-50.785
-48.663
-46.664
-44.791
-43.044
-41.426
-39.936
-38.569
-37.322
-36.189
-35.167
-34.253
-33.441
-32.73
-32.116
-31.595
-31.165
-30.825
-30.569
-30.396
-30.299
-30.272
-30.31
-30.407
-30.556
-30.751
-30.984
-31.249
-31.539
-31.846
-32.165
-32.488
-32.81
-33.124
-33.424
-33.705
-33.961
-34.187
-34.378
-34.527
-34.629
-34.678
-34.667
-34.591
-34.446
-34.225
-33.926
-33.541
-33.064
-32.491
-31.817
-31.035
-30.144
-29.137
-28.009
-26.761
-25.39
-23.897
-22.285
-20.552
-18.699
-16.724
-14.626
-12.415
-10.101
-7.694
-5.211
-2.65
-0.012
2.691
5.452
8.258
11.083
13.944
16.859
19.764
22.611
25.346
27.888
30.292
32.636
34.869
36.955
38.99
41.014
43.152
45.567
48.067
50.434
52.653
54.66
56.316
57.564
58.172
57.874
56.895
55.464
53.627
51.501
49.15
46.567
43.956
41.534
39.145
36.648
34.005
31.121
28.036
24.828
21.431
17.787
13.993
10.131
6.272
2.527
-1.074
-4.507
-7.704
-10.616
-13.22
-15.505
-17.487
-19.211
-20.73
-22.098
-23.382
-24.654
-25.986
-27.47
-29.205
-31.274
-33.778
-36.861
-40.586
-44.958
-49.902
-55.141
-60.353
-65.254
-69.446
-72.497
-74.148
-74.224
-72.808
-70.517
-68.049
-65.965
-64.867
-65.251
-67.325
-71.177
-76.523
-81.43
-83.007
-78.947
-66.766
-46.262
-19.846
12.666
51.872
99.835
162.226
239.502
329.157
427.271
523.79
611.294
683.114
729.889
747.285
730.161
674.34
582.407
456.478
303.802
138.733
-23.664
-164.685
-268.354
-328.8
-347.581
-332.876
-297.353
-252.244
-206.182
-167.677
-141.76
-129.002
-127.843
-132.179
-135.438
-135.497
-132.181
-128.084
-126.822
-128.58
-132.126
-135.595
-136.493
-134.167
-129.132
-121.883
-113.306
-104.225
-95.135
-86.784
-79.968
-75.023
-72.059
-71.028
-71.679
-73.752
-76.995
-81.013
-85.367
-89.778
-94.06
-98.102
-101.835
-105.124
-107.825
-109.834
-111.092
-111.571
-111.241
-110.071
-108.04
-105.161
-101.492
-97.117
-92.117
-86.54
-80.431
-73.828
-66.793
-59.421
-51.79
-43.961
-35.986
-27.899
-19.746
-11.583
-3.443
4.666
12.742
20.802
28.846
36.853
44.813
52.714
60.565
68.396
76.231
84.085
91.99
99.986
108.124
116.472
125.066
133.907
142.99
152.29
161.789
171.476
181.318
191.261
201.238
211.165
220.944
230.477
239.628
248.228
256.109
263.09
269.028
273.829
277.409
279.707
280.675
280.272
278.492
275.362
270.918
265.211
258.317
250.327
241.374
231.642
221.303
210.535
199.488
188.273
176.998
165.757
154.628
143.676
132.947
122.464
112.253
102.342
92.737
83.438
74.414
65.604
56.96
48.444
40.03
31.714
23.493
15.366
7.351
-0.528
-8.243
-15.758
-23.05
-30.101
-36.889
-43.387
-49.562
-55.373
-60.79
-65.794
-70.371
-74.517
-78.231
-81.515
-84.38
-86.847
-88.936
-90.667
-92.056
-93.119
-93.873
-94.34
-94.54
-94.498
-94.233
-93.765
-93.114
-92.3
-91.34
-90.255
-89.059
-87.766
-86.392
-84.953
-83.464
-81.941
-80.398
-78.851
-77.311
-75.791
-74.304
-72.859
-71.466
-70.13
-68.86
-67.661
-66.538
-65.496
-64.537
-63.664
-62.88
-62.185
-61.579
-61.064
-60.638
-60.3
-60.05
-59.886
-59.805
-59.806
-59.885
-60.04
-60.267
-60.563
-60.924
-61.344
-61.821
-62.348
-62.921
-63.536
-64.186
-64.867
-65.573
-66.299
-67.039
-67.789
-68.542
-69.294
-70.039
-70.772
-71.488
-72.182
-72.849
-73.483
-74.081
-74.638
-75.149
-75.61
-76.017
-76.365
-76.651
-76.87
-77.019
-77.093
-77.089
-77.005
-76.837
-76.583
-76.241
-75.808
-75.283
-74.665
-73.953
-73.146
-72.246
-71.252
-70.165
-68.988
-67.723
-66.375
-64.945
-63.44
-61.864
-60.223
-58.524
-56.773
-54.977
-53.144
-51.282
-49.4
-47.508
-45.616
-43.735
-41.879
-40.061
-38.295
-36.594
-34.973
-33.445
-32.025
-30.727
-29.563
-28.546
-27.688
-26.998
-26.492
-26.179
-26.071
-26.174
-26.493
-27.033
-27.797
-28.787
-29.999
-31.431
-33.078
-34.934
-37.002
-39.283
-41.773
-44.466
-47.35
-50.41
-53.63
-56.986
-60.444
-63.972
-67.53
-71.08
-74.593
-78.029
-81.352
-84.526
-87.504
-90.248
-92.717
-94.859
-96.64
-98.048
-99.084
-99.792
-100.211
-100.34
-100.266
-100.146
-100.131
-100.411
-101.065
-102.037
-103.413
-105.371
-107.879
-110.714
-113.479
-115.607
-116.839
-117.211
-116.5
-114.386
-110.822
-106.123
-101.137
-96.963
-94.276
-93.428
-94.833
-98.803
-105.466
-113.59
-121.012
-126.19
-126.969
-122.69
-113
-93.827
-62.195
-15.365
49.196
127.189
212.532
299.652
381.769
456.721
525.699
588.042
640.922
678.393
690.726
669.115
611.209
518.9
398.018
260.06
116.462
-20.18
-134.455
-216.219
-261.461
-271.396
-255.579
-226.231
-192.775
-164.214
-145.209
-134.426
-129.439
-125.152
-117.077
-105.777
-93.741
-84.479
-80.505
-81.359
-85.114
-89.663
-93.668
-96.311
-97.014
-95.671
-92.284
-87.072
-80.578
-73.214
-65.346
-57.628
-50.742
-45.124
-41.018
-38.399
-37.041
-36.752
-37.341
-38.521
-39.984
-41.514
-42.98
-44.343
-45.608
-46.755
-47.728
-48.454
-48.875
-48.928
-48.532
-47.63
-46.18
-44.161
-41.591
-38.504
-34.923
-30.869
-26.362
-21.399
-15.991
-10.16
-3.938
2.608
9.416
16.428
23.574
30.797
38.042
45.26
52.425
59.534
66.588
73.581
80.505
87.331
94.037
100.62
107.097
113.492
119.832
126.151
132.492
138.922
145.524
152.355
159.44
166.769
174.313
182.048
189.963
198.042
206.251
214.535
222.818
231.028
239.094
246.915
254.36
261.25
267.378
272.581
276.737
279.763
281.601
282.184
281.437
279.307
275.778
270.857
264.565
256.919
247.924
237.637
226.173
213.705
200.438
186.552
172.192
157.485
142.561
127.565
112.657
97.986
83.654
69.758
56.393
43.664
31.701
20.587
10.348
0.965
-7.608
-15.407
-22.452
-28.766
-34.402
-39.427
-43.928
-47.997
-51.688
-55.052
-58.15
-61.05
-63.843
-66.596
-69.34
-72.078
-74.811
-77.534
-80.255
-82.974
-85.662
-88.28
-90.782
-93.113
-95.244
-97.154
-98.821
-100.221
-101.328
-102.121
-102.603
-102.787
-102.687
-102.317
-101.689
-100.815
-99.727
-98.462
-97.055
-95.549
-93.975
-92.354
-90.711
-89.065
-87.433
-85.83
-84.26
-82.726
-81.228
-79.772
-78.359
-76.995
-75.679
-74.406
-73.173
-71.975
-70.811
-69.677
-68.571
-67.491
-66.437
-65.408
-64.405
-63.431
-62.487
-61.57
-60.681
-59.818
-58.978
-58.161
-57.363
-56.584
-55.821
-55.074
-54.341
-53.622
-52.918
-52.228
-51.552
-50.891
-50.243
-49.61
-48.991
-48.387
-47.798
-47.226
-46.669
-46.129
-45.604
-45.096
-44.604
-44.126
-43.663
-43.212
-42.774
-42.346
-41.928
-41.518
-41.116
-40.719
-40.326
-39.936
-39.548
-39.16
-38.77
-38.376
-37.978
-37.572
-37.157
-36.731
-36.292
-35.838
-35.367
-34.877
-34.367
-33.835
-33.28
-32.702
-32.098
-31.47
-30.817
-30.139
-29.436
-28.711
-27.962
-27.192
-26.402
-25.592
-24.764
-23.918
-23.057
-22.18
-21.29
-20.388
-19.476
-18.553
-17.621
-16.681
-15.733
-14.779
-13.819
-12.854
-11.884
-10.91
-9.933
-8.954
-7.974
-6.995
-6.017
-5.042
-4.07
-3.102
-2.139
-1.183
-0.234
0.706
1.635
2.55
3.447
4.321
5.167
5.977
6.746
7.468
8.134
8.736
9.265
9.713
10.072
10.334
10.491
10.531
10.444
10.22
9.853
9.336
8.664
7.83
6.825
5.649
4.301
2.784
1.098
-0.764
-2.81
-5.041
-7.457
-10.054
-12.82
-15.746
-18.819
-22.013
-25.297
-28.639
-31.999
-35.35
-38.663
-41.915
-45.083
-48.133
-51.022
-53.706
-56.139
-58.287
-60.148
-61.74
-63.083
-64.196
-65.127
-65.996
-67.011
-68.378
-70.221
-72.539
-75.274
-78.509
-82.341
-86.677
-91.197
-95.402
-98.84
-101.411
-103.223
-104.125
-103.875
-102.458
-100.145
-97.709
-96.129
-95.848
-96.957
-99.65
-103.982
-109.886
-117.101
-124.46
-130.088
-131.801
-126.931
-113.18
-89.344
-56.112
-15.335
31.579
84.36
146.113
219.9
305.906
401.822
499.305
589.062
663.227
713.529
736.587
729.213
687.92
613.35
504.865
367.551
215.123
63.774
-65.172
-155.953
-206.598
-223.473
-219.726
-206.667
-187.693
-162.722
-134.074
-108.741
-94.552
-97.41
-113.697
-131.484
-142.017
-139.293
-125.281
-109.613
-97.791
-93.143
-95.573
-99.974
-103.533
-105.03
-103.76
-101.106
-97.987
-94.317
-90.112
-85.301
-79.93
-74.489
-69.606
-65.542
-62.337
-60.007
-58.437
-57.537
-57.254
-57.378
-57.641
-57.894
-58.052
-58.097
-58.086
-58.014
-57.836
-57.519
-57.007
-56.267
-55.272
-53.977
-52.332
-50.277
-47.773
-44.819
-41.415
-37.555
-33.234
-28.427
-23.115
-17.318
-11.064
-4.397
2.609
9.901
17.428
25.122
32.928
40.793
48.669
56.54
64.391
72.198
79.939
87.588
95.124
102.556
109.901
117.178
124.437
131.727
139.102
146.635
154.374
162.339
170.544
178.974
187.605
196.416
205.368
214.415
223.503
232.56
241.507
250.258
258.692
266.669
274.037
280.629
286.3
290.935
294.427
296.701
297.708
297.415
295.822
292.943
288.8
283.427
276.865
269.173
260.447
250.803
240.371
229.311
217.776
205.924
193.924
181.909
169.985
158.235
146.712
135.468
124.558
114.027
103.921
94.277
85.112
76.452
68.309
60.665
53.485
46.709
40.25
34.053
28.088
22.335
16.797
11.469
6.343
1.418
-3.305
-7.832
-12.176
-16.367
-20.44
-24.396
-28.226
-31.893
-35.34
-38.535
-41.46
-44.1
-46.455
-48.526
-50.316
-51.841
-53.126
-54.186
-55.025
-55.638
-56.016
-56.169
-56.116
-55.886
-55.521
-55.051
-54.505
-53.913
-53.299
-52.683
-52.082
-51.502
-50.943
-50.411
-49.915
-49.466
-49.077
-48.755
-48.502
-48.32
-48.208
-48.165
-48.189
-48.274
-48.414
-48.606
-48.847
-49.137
-49.476
-49.862
-50.293
-50.766
-51.278
-51.825
-52.403
-53.006
-53.629
-54.266
-54.913
-55.566
-56.221
-56.874
-57.521
-58.16
-58.787
-59.401
-59.999
-60.578
-61.138
-61.677
-62.194
-62.69
-63.165
-63.619
-64.053
-64.469
-64.868
-65.251
-65.62
-65.978
-66.325
-66.663
-66.995
-67.321
-67.645
-67.968
-68.293
-68.621
-68.957
-69.301
-69.658
-70.028
-70.414
-70.819
-71.244
-71.691
-72.161
-72.656
-73.177
-73.726
-74.303
-74.91
-75.545
-76.21
-76.904
-77.628
-78.38
-79.159
-79.966
-80.798
-81.654
-82.534
-83.436
-84.358
-85.299
-86.256
-87.229
-88.215
-89.211
-90.215
-91.225
-92.238
-93.25
-94.259
-95.26
-96.252
-97.229
-98.188
-99.126
-100.038
-100.921
-101.769
-102.579
-103.348
-104.069
-104.74
-105.356
-105.913
-106.406
-106.833
-107.19
-107.473
-107.679
-107.805
-107.848
-107.804
-107.672
-107.449
-107.131
-106.719
-106.208
-105.6
-104.892
-104.085
-103.18
-102.176
-101.076
-99.882
-98.596
-97.221
-95.76
-94.218
-92.6
-90.911
-89.159
-87.352
-85.497
-83.605
-81.688
-79.758
-77.826
-75.903
-74.004
-72.141
-70.329
-68.583
-66.915
-65.343
-63.88
-62.541
-61.344
-60.301
-59.427
-58.733
-58.23
-57.927
-57.834
-57.96
-58.308
-58.883
-59.685
-60.713
-61.972
-63.459
-65.17
-67.098
-69.235
-71.568
-74.082
-76.757
-79.561
-82.467
-85.443
-88.45
-91.464
-94.455
-97.405
-100.302
-103.121
-105.836
-108.418
-110.828
-113.031
-115.016
-116.77
-118.285
-119.624
-120.88
-122.191
-123.759
-125.757
-128.303
-131.473
-135.318
-139.72
-144.442
-149.211
-153.59
-157.168
-159.618
-160.612
-159.923
-157.643
-154.073
-149.51
-144.497
-139.555
-135.18
-132.136
-131.038
-132.092
-135.244
-140.213
-146.441
-153.431
-160.366
-165.65
-166.943
-161.433
-146.741
-121.49
-86.474
-43.326
7.205
64.828
131.865
210.398
299.674
397.788
498.673
594.609
677.974
738.656
767.772
757.663
702.74
603.86
466.835
303.578
132.097
-28.516
-159.086
-246.474
-288.111
-288.712
-262.291
-224.985
-188.471
-162.84
-149.377
-143.729
-141.757
-136.374
-125.399
-111.712
-98.322
-89.712
-87.467
-89.862
-94.853
-100.118
-104.314
-106.878
-107.3
-105.526
-101.733
-96.316
-89.912
-82.99
-75.944
-69.326
-63.665
-59.263
-56.191
-54.293
-53.302
-53.003
-53.23
-53.76
-54.336
-54.788
-55.032
-55.04
-54.82
-54.351
-53.558
-52.407
-50.907
-49.059
-46.876
-44.366
-41.519
-38.343
-34.857
-31.067
-26.962
-22.526
-17.74
-12.597
-7.11
-1.303
4.786
11.124
17.688
24.453
31.404
38.525
45.799
53.206
60.723
68.324
75.97
83.631
91.278
98.883
106.431
113.917
121.342
128.713
136.046
143.356
150.654
157.972
165.331
172.765
180.316
188.003
195.84
203.833
211.972
220.246
228.631
237.072
245.51
253.877
262.088
270.057
277.683
284.829
291.369
297.178
302.124
306.104
309.028
310.796
311.343
310.621
308.608
305.331
300.828
295.137
288.316
280.433
271.588
261.928
251.582
240.658
229.272
217.526
205.545
193.486
181.477
169.61
157.958
146.556
135.434
124.644
114.219
104.178
94.514
85.194
76.211
67.599
59.392
51.608
44.225
37.178
30.421
23.945
17.752
11.857
6.263
0.958
-4.061
-8.775
-13.157
-17.183
-20.855
-24.214
-27.305
-30.151
-32.744
-35.046
-37.037
-38.72
-40.106
-41.205
-42.018
-42.542
-42.793
-42.804
-42.611
-42.241
-41.706
-41.004
-40.13
-39.096
-37.93
-36.665
-35.334
-33.955
-32.55
-31.142
-29.759
-28.424
-27.149
-25.936
-24.786
-23.705
-22.702
-21.788
-20.97
-20.251
-19.632
-19.11
-18.684
-18.353
-18.112
-17.955
-17.875
-17.864
-17.919
-18.036
-18.214
-18.446
-18.727
-19.051
-19.415
-19.812
-20.236
-20.681
-21.139
-21.606
-22.074
-22.539
-22.997
-23.442
-23.869
-24.276
-24.659
-25.014
-25.34
-25.634
-25.893
-26.118
-26.307
-26.46
-26.576
-26.655
-26.697
-26.705
-26.678
-26.618
-26.526
-26.403
-26.251
-26.071
-25.866
-25.636
-25.383
-25.109
-24.815
-24.505
-24.179
-23.841
-23.491
-23.134
-22.77
-22.403
-22.034
-21.667
-21.302
-20.944
-20.594
-20.256
-19.932
-19.626
-19.341
-19.081
-18.848
-18.646
-18.479
-18.351
-18.264
-18.223
-18.23
-18.29
-18.405
-18.578
-18.814
-19.115
-19.483
-19.922
-20.433
-21.019
-21.682
-22.421
-23.239
-24.136
-25.112
-26.166
-27.296
-28.502
-29.78
-31.127
-32.539
-34.011
-35.537
-37.11
-38.724
-40.371
-42.042
-43.728
-45.419
-47.106
-48.778
-50.424
-52.032
-53.592
-55.092
-56.519
-57.863
-59.112
-60.256
-61.282
-62.18
-62.941
-63.555
-64.011
-64.303
-64.421
-64.358
-64.109
-63.669
-63.033
-62.2
-61.168
-59.937
-58.511
-56.892
-55.084
-53.095
-50.931
-48.601
-46.116
-43.487
-40.729
-37.856
-34.884
-31.831
-28.719
-25.567
-22.397
-19.229
-16.085
-12.989
-9.964
-7.034
-4.22
-1.542
0.978
3.319
5.458
7.375
9.055
10.482
11.643
12.525
13.116
13.404
13.389
13.07
12.452
11.535
10.316
8.79
6.965
4.851
2.462
-0.185
-3.073
-6.178
-9.458
-12.87
-16.364
-19.888
-23.409
-26.895
-30.318
-33.654
-36.855
-39.862
-42.628
-45.104
-47.259
-49.098
-50.613
-51.792
-52.701
-53.445
-54.209
-55.272
-56.785
-58.771
-61.235
-64.166
-67.547
-71.348
-75.275
-78.752
-81.376
-82.963
-83.491
-83.08
-81.683
-79.2
-75.908
-72.508
-69.696
-68.037
-67.797
-68.894
-71.385
-75.378
-80.582
-86.262
-91.43
-94.035
-91.441
-81.84
-63.07
-35.141
-0.822
39.62
85.89
139.482
206.369
287.442
381.181
484.801
588.107
682.598
760.017
808.962
823.405
798.712
731.983
627.295
490.475
330.925
164.393
7.085
-124.919
-218.776
-272.201
-289.406
-279.415
-255.133
-225.56
-198.112
-177.777
-163.615
-153.548
-143.199
-128.404
-109.708
-89.716
-72.6
-61.563
-56.593
-55.963
-57.315
-59.136
-60.749
-61.721
-61.721
-60.183
-56.905
-52.262
-46.714
-40.706
-34.755
-29.254
-24.66
-21.55
-20.143
-20.356
-22.002
-24.758
-28.297
-32.397
-36.768
-41.054
-45.009
-48.429
-51.154
-53.146
-54.371
-54.791
-54.407
-53.228
-51.264
-48.559
-45.171
-41.15
-36.561
-31.45
-25.857
-19.839
-13.462
-6.806
0.055
7.073
14.214
21.45
28.753
36.089
43.432
50.765
58.084
65.386
72.673
79.941
87.187
94.411
101.609
108.787
115.954
123.121
130.3
137.503
144.756
152.096
159.581
167.273
175.221
183.45
191.96
200.737
209.76
219.011
228.471
238.105
247.849
257.627
267.36
276.957
286.316
295.295
303.71
311.361
318.076
323.719
328.193
331.425
333.346
333.892
333.004
330.652
326.845
321.601
314.945
306.916
297.564
286.993
275.376
262.894
249.717
236
221.861
207.416
192.795
178.128
163.546
149.179
135.118
121.457
108.293
95.712
83.81
72.635
62.177
52.42
43.344
34.926
27.162
20.039
13.511
7.529
2.03
-3.069
-7.82
-12.277
-16.504
-20.555
-24.503
-28.401
-32.262
-36.093
-39.899
-43.677
-47.437
-51.18
-54.879
-58.504
-62.015
-65.355
-68.488
-71.389
-74.028
-76.382
-78.426
-80.139
-81.521
-82.584
-83.339
-83.798
-83.973
-83.873
-83.527
-82.968
-82.228
-81.352
-80.371
-79.309
-78.193
-77.043
-75.878
-74.715
-73.565
-72.427
-71.309
-70.215
-69.151
-68.126
-67.142
-66.199
-65.298
-64.437
-63.618
-62.843
-62.112
-61.428
-60.793
-60.21
-59.683
-59.217
-58.816
-58.48
-58.212
-58.011
-57.876
-57.808
-57.804
-57.863
-57.981
-58.158
-58.391
-58.678
-59.017
-59.405
-59.84
-60.318
-60.838
-61.396
-61.989
-62.616
-63.272
-63.956
-64.663
-65.392
-66.139
-66.901
-67.676
-68.459
-69.249
-70.041
-70.832
-71.621
-72.404
-73.178
-73.941
-74.691
-75.426
-76.145
-76.846
-77.529
-78.194
-78.839
-79.464
-80.07
-80.657
-81.225
-81.775
-82.307
-82.823
-83.324
-83.81
-84.283
-84.745
-85.196
-85.639
-86.074
-86.503
-86.926
-87.346
-87.762
-88.177
-88.59
-89.002
-89.414
-89.826
-90.236
-90.645
-91.053
-91.457
-91.856
-92.249
-92.633
-93.006
-93.365
-93.707
-94.028
-94.325
-94.592
-94.827
-95.024
-95.178
-95.284
-95.337
-95.332
-95.264
-95.129
-94.92
-94.635
-94.268
-93.815
-93.271
-92.635
-91.901
-91.067
-90.131
-89.092
-87.95
-86.703
-85.352
-83.9
-82.347
-80.698
-78.954
-77.12
-75.201
-73.203
-71.132
-68.996
-66.805
-64.568
-62.296
-60.004
-57.705
-55.411
-53.138
-50.9
-48.714
-46.596
-44.564
-42.631
-40.813
-39.126
-37.584
-36.205
-35
-33.982
-33.159
-32.542
-32.139
-31.959
-32.007
-32.284
-32.786
-33.51
-34.453
-35.62
-37.011
-38.622
-40.444
-42.47
-44.688
-47.089
-49.654
-52.351
-55.145
-57.991
-60.856
-63.716
-66.553
-69.355
-72.097
-74.736
-77.231
-79.544
-81.641
-83.501
-85.101
-86.403
-87.438
-88.299
-89.134
-90.16
-91.563
-93.456
-95.922
-99.013
-102.659
-106.714
-110.909
-114.797
-117.94
-119.954
-120.57
-119.681
-117.374
-113.864
-109.513
-104.906
-100.778
-97.989
-97.254
-99.04
-103.53
-110.584
-119.866
-130.713
-141.942
-151.824
-158.45
-159.814
-153.938
-139.124
-113.827
-76.836
-27.723
32.934
103.968
182.706
264.708
345.525
420.275
485.769
542.431
589.698
625.352
645.025
639.295
600.685
526.905
418.938
285.94
141.27
-1.643
-127.003
-223.68
-287.628
-319.896
-327.649
-318.574
-297.493
-267.628
-231.803
-194.79
-162.289
-138.399
-123.659
-114.414
-106.767
-98.914
-91.296
-86.725
-86.943
-91.504
-98.899
-106.59
-112.685
-116.442
-117.671
-116.696
-113.956
-109.83
-104.799
-99.466
-94.453
-90.349
-87.458
-85.782
-85.17
-85.351
-86.022
-86.896
-87.673
-88.065
-87.914
-87.173
-85.849
-84.012
-81.723
-79.019
-75.954
-72.579
-68.925
-65.019
-60.889
-56.556
-52.058
-47.437
-42.72
-37.927
-33.064
-28.124
-23.091
-17.941
-12.651
-7.201
-1.58
4.216
10.184
16.319
22.609
29.034
35.577
42.227
48.978
55.834
62.784
69.81
76.886
83.979
91.076
98.173
105.271
112.376
119.506
126.692
133.991
141.481
149.213
157.213
165.479
173.985
182.714
191.658
200.801
210.111
219.533
228.989
238.408
247.714
256.801
265.529
273.709
281.125
287.605
293.019
297.271
300.294
302.011
302.337
301.211
298.612
294.542
289.022
282.066
273.684
263.939
252.95
240.9
228.003
214.444
200.374
185.924
171.232
156.446
141.736
127.253
113.107
99.397
86.222
73.691
61.934
51.032
41.01
31.843
23.484
15.895
9.054
2.941
-2.496
-7.325
-11.632
-15.508
-19.006
-22.177
-25.082
-27.79
-30.39
-32.95
-35.494
-38.028
-40.547
-43.048
-45.539
-48.02
-50.465
-52.835
-55.086
-57.167
-59.05
-60.718
-62.148
-63.321
-64.21
-64.798
-65.089
-65.101
-64.849
-64.348
-63.614
-62.661
-61.523
-60.236
-58.839
-57.375
-55.875
-54.363
-52.866
-51.403
-49.993
-48.65
-47.382
-46.189
-45.075
-44.044
-43.1
-42.247
-41.485
-40.81
-40.22
-39.709
-39.275
-38.916
-38.629
-38.412
-38.265
-38.187
-38.178
-38.24
-38.373
-38.574
-38.844
-39.177
-39.57
-40.021
-40.526
-41.08
-41.679
-42.32
-42.999
-43.713
-44.46
-45.236
-46.038
-46.862
-47.706
-48.567
-49.44
-50.324
-51.215
-52.11
-53.005
-53.898
-54.786
-55.664
-56.53
-57.378
-58.206
-59.009
-59.782
-60.523
-61.226
-61.888
-62.505
-63.074
-63.591
-64.054
-64.459
-64.805
-65.089
-65.309
-65.464
-65.552
-65.572
-65.523
-65.405
-65.218
-64.962
-64.638
-64.248
-63.793
-63.276
-62.698
-62.063
-61.374
-60.635
-59.849
-59.021
-58.155
-57.257
-56.332
-55.386
-54.423
-53.451
-52.474
-51.499
-50.531
-49.576
-48.64
-47.728
-46.844
-45.994
-45.182
-44.412
-43.687
-43.01
-42.383
-41.808
-41.286
-40.817
-40.401
-40.037
-39.724
-39.459
-39.239
-39.062
-38.925
-38.822
-38.75
-38.702
-38.674
-38.659
-38.651
-38.642
-38.627
-38.597
-38.546
-38.465
-38.348
-38.188
-37.976
-37.706
-37.37
-36.962
-36.475
-35.904
-35.244
-34.49
-33.638
-32.687
-31.635
-30.481
-29.225
-27.868
-26.413
-24.86
-23.215
-21.482
-19.665
-17.773
-15.811
-13.789
-11.718
-9.607
-7.472
-5.324
-3.177
-1.045
1.056
3.11
5.099
7.005
8.814
10.511
12.078
13.501
14.764
15.852
16.755
17.464
17.969
18.26
18.327
18.163
17.772
17.156
16.319
15.267
13.993
12.497
10.783
8.858
6.731
4.412
1.908
-0.763
-3.567
-6.466
-9.41
-12.361
-15.297
-18.201
-21.059
-23.847
-26.509
-28.996
-31.261
-33.259
-34.977
-36.394
-37.466
-38.233
-38.795
-39.298
-40.001
-41.119
-42.694
-44.771
-47.358
-50.311
-53.55
-56.893
-59.851
-62.01
-63.177
-63.209
-62.216
-60.526
-58.182
-55.321
-52.485
-50.237
-49.126
-49.585
-51.657
-55.131
-60.121
-66.863
-74.556
-81.381
-85.49
-84.906
-79.993
-73.775
-66.569
-56.368
-37.35
0.676
62.038
144.586
241.24
339.19
430.867
515.314
592.665
664.146
724.646
762.622
767.807
733.055
658.651
551.431
420.312
276.21
130.423
-4.793
-116.462
-195.191
-237.491
-245.655
-228.184
-196.48
-160.211
-129.116
-109.543
-101.406
-102.672
-107.042
-107.036
-101.031
-89.897
-76.774
-66.559
-60.511
-57.679
-57.139
-57.329
-57.448
-57.638
-57.673
-57.137
-55.991
-54.287
-51.968
-49.159
-46.093
-42.932
-40.112
-38.205
-37.397
-37.646
-38.813
-40.578
-42.662
-44.888
-46.988
-48.655
-49.717
-50.08
-49.743
-48.791
-47.277
-45.194
-42.525
-39.258
-35.41
-31.045
-26.252
-21.137
-15.814
-10.377
-4.918
0.472
5.74
10.878
15.916
20.927
25.987
31.13
36.352
41.639
46.971
52.353
57.81
63.371
69.083
75
81.18
87.704
94.615
101.907
109.551
117.481
125.607
133.88
142.277
150.794
159.461
168.315
177.366
186.622
196.061
205.63
215.268
224.886
234.396
243.741
252.865
261.727
270.313
278.576
286.442
293.818
300.558
306.505
311.534
315.534
318.422
320.146
320.661
319.949
318.018
314.877
310.537
305.007
298.28
290.375
281.347
271.273
260.273
248.484
236.017
222.978
209.471
195.591
181.438
167.107
152.665
138.189
123.771
109.517
95.556
81.998
68.922
56.398
44.475
33.196
22.609
12.75
3.642
-4.701
-12.278
-19.093
-25.143
-30.45
-35.063
-39.058
-42.536
-45.587
-48.278
-50.679
-52.86
-54.884
-56.813
-58.691
-60.544
-62.396
-64.262
-66.156
-68.092
-70.061
-72.037
-73.978
-75.827
-77.539
-79.084
-80.434
-81.56
-82.443
-83.068
-83.436
-83.561
-83.458
-83.139
-82.619
-81.914
-81.047
-80.05
-78.96
-77.815
-76.65
-75.488
-74.354
-73.266
-72.24
-71.287
-70.411
-69.608
-68.877
-68.22
-67.637
-67.129
-66.694
-66.329
-66.03
-65.793
-65.615
-65.494
-65.427
-65.413
-65.451
-65.541
-65.683
-65.878
-66.125
-66.424
-66.771
-67.164
-67.6
-68.075
-68.584
-69.124
-69.69
-70.279
-70.887
-71.511
-72.149
-72.796
-73.451
-74.111
-74.773
-75.435
-76.094
-76.749
-77.398
-78.037
-78.666
-79.281
-79.882
-80.465
-81.029
-81.572
-82.091
-82.585
-83.052
-83.49
-83.899
-84.276
-84.621
-84.933
-85.213
-85.461
-85.676
-85.859
-86.012
-86.135
-86.229
-86.294
-86.333
-86.346
-86.335
-86.301
-86.246
-86.171
-86.08
-85.972
-85.852
-85.721
-85.58
-85.433
-85.282
-85.129
-84.976
-84.826
-84.681
-84.543
-84.415
-84.299
-84.196
-84.109
-84.039
-83.989
-83.958
-83.948
-83.96
-83.994
-84.05
-84.128
-84.228
-84.349
-84.491
-84.653
-84.832
-85.028
-85.239
-85.461
-85.692
-85.93
-86.17
-86.41
-86.646
-86.874
-87.091
-87.292
-87.474
-87.632
-87.763
-87.863
-87.927
-87.951
-87.931
-87.863
-87.741
-87.563
-87.326
-87.024
-86.657
-86.22
-85.712
-85.13
-84.472
-83.736
-82.922
-82.028
-81.053
-79.999
-78.866
-77.655
-76.37
-75.014
-73.589
-72.1
-70.553
-68.951
-67.299
-65.604
-63.872
-62.11
-60.325
-58.526
-56.722
-54.925
-53.145
-51.396
-49.688
-48.034
-46.447
-44.94
-43.528
-42.224
-41.039
-39.983
-39.069
-38.309
-37.713
-37.294
-37.056
-37.004
-37.144
-37.481
-38.022
-38.769
-39.714
-40.85
-42.169
-43.664
-45.34
-47.197
-49.226
-51.419
-53.765
-56.25
-58.865
-61.592
-64.391
-67.219
-70.027
-72.773
-75.435
-77.997
-80.443
-82.75
-84.861
-86.729
-88.307
-89.555
-90.463
-91.015
-91.172
-90.978
-90.545
-90.036
-89.73
-89.867
-90.518
-91.744
-93.559
-95.826
-98.455
-101.233
-103.628
-105.15
-105.513
-104.53
-102.309
-99.201
-95.327
-90.912
-86.575
-83.003
-80.962
-81.016
-83.113
-86.885
-92.174
-98.802
-106.474
-113.81
-117.97
-116.546
-107.693
-92.083
-73.029
-51.25
-25.179
10.218
63.293
137.371
230.272
335.424
442.167
542.553
632.431
707.991
764.524
795.825
793.711
752.387
672.122
556.276
413.698
257.681
102.327
-36.025
-144.77
-217.825
-256.05
-266.232
-255.362
-231.068
-198.646
-163.257
-132.946
-111.311
-99.695
-96.068
-93.295
-88.341
-81.22
-73.378
-69.033
-69.455
-73.277
-78.93
-83.931
-86.797
-87.257
-85.292
-81.299
-75.795
-69.241
-62.156
-55.127
-48.785
-43.762
-40.413
-38.8
-38.802
-40.132
-42.499
-45.607
-49.073
-52.499
-55.575
-58.097
-59.976
-61.216
-61.809
-61.74
-60.993
-59.544
-57.385
-54.531
-50.999
-46.827
-42.059
-36.759
-31.038
-25.035
-18.904
-12.793
-6.786
-0.911
4.814
10.39
15.819
21.1
26.267
31.374
36.454
41.531
46.619
51.726
56.911
62.266
67.899
73.927
80.412
87.37
94.816
102.755
111.17
120.03
129.278
138.833
148.665
158.783
169.186
179.873
190.8
201.88
213.025
224.133
235.113
245.887
256.367
266.456
276.088
285.209
293.769
301.719
308.956
315.332
320.728
325.032
328.162
330.065
330.694
330.023
328.058
324.827
320.37
314.74
307.974
300.105
291.192
281.312
270.581
259.146
247.146
234.718
222.009
209.17
196.331
183.602
171.054
158.727
146.671
134.935
123.568
112.626
102.143
92.138
82.634
73.639
65.141
57.118
49.516
42.256
35.287
28.579
22.12
15.922
9.981
4.287
-1.159
-6.36
-11.322
-16.052
-20.582
-24.944
-29.142
-33.167
-36.986
-40.543
-43.806
-46.762
-49.399
-51.718
-53.724
-55.417
-56.817
-57.947
-58.822
-59.45
-59.824
-59.935
-59.796
-59.425
-58.854
-58.125
-57.27
-56.318
-55.299
-54.241
-53.162
-52.083
-51.009
-49.944
-48.895
-47.872
-46.89
-45.961
-45.096
-44.299
-43.573
-42.919
-42.337
-41.827
-41.384
-41.005
-40.688
-40.432
-40.238
-40.106
-40.038
-40.032
-40.087
-40.201
-40.371
-40.593
-40.864
-41.177
-41.528
-41.913
-42.328
-42.768
-43.23
-43.708
-44.201
-44.702
-45.21
-45.72
-46.228
-46.731
-47.226
-47.709
-48.179
-48.633
-49.07
-49.488
-49.886
-50.263
-50.619
-50.951
-51.259
-51.543
-51.802
-52.036
-52.244
-52.427
-52.584
-52.717
-52.827
-52.914
-52.981
-53.028
-53.058
-53.072
-53.071
-53.058
-53.034
-53.003
-52.966
-52.925
-52.883
-52.843
-52.807
-52.777
-52.756
-52.745
-52.747
-52.764
-52.796
-52.847
-52.917
-53.009
-53.123
-53.261
-53.423
-53.611
-53.826
-54.067
-54.334
-54.627
-54.947
-55.292
-55.661
-56.053
-56.466
-56.898
-57.348
-57.812
-58.288
-58.772
-59.261
-59.752
-60.239
-60.72
-61.19
-61.645
-62.08
-62.491
-62.874
-63.224
-63.536
-63.806
-64.029
-64.2
-64.316
-64.372
-64.364
-64.289
-64.141
-63.919
-63.618
-63.237
-62.771
-62.22
-61.582
-60.855
-60.039
-59.133
-58.138
-57.055
-55.884
-54.628
-53.291
-51.874
-50.383
-48.823
-47.198
-45.516
-43.783
-42.004
-40.189
-38.348
-36.491
-34.631
-32.78
-30.953
-29.165
-27.43
-25.762
-24.173
-22.672
-21.271
-19.979
-18.806
-17.765
-16.867
-16.124
-15.544
-15.132
-14.894
-14.828
-14.928
-15.188
-15.602
-16.168
-16.894
-17.787
-18.855
-20.102
-21.53
-23.133
-24.894
-26.795
-28.805
-30.901
-33.069
-35.296
-37.574
-39.884
-42.196
-44.464
-46.635
-48.642
-50.402
-51.882
-53.099
-54.121
-55.092
-56.147
-57.379
-58.862
-60.66
-62.68
-64.712
-66.477
-67.593
-67.83
-67.191
-65.793
-63.835
-61.713
-59.913
-58.907
-59.231
-61.094
-64.324
-68.624
-73.568
-78.646
-83.464
-87.784
-91.427
-94.561
-97.563
-100.596
-103.904
-107.607
-111.145
-113.58
-113.06
-106.568
-92.123
-68.634
-35.935
4.36
52.609
110.365
178.47
258.118
346.892
439.857
531.871
616.188
686.092
734.042
752.698
736.416
682.655
594.245
475.569
333.832
179.596
23.729
-119.377
-235.019
-314.01
-352.264
-352.246
-324.597
-281.934
-236.515
-200.771
-178.787
-168.483
-165.028
-159.028
-146.247
-128.077
-107.588
-90.67
-80.225
-75.288
-74.141
-74.387
-74.629
-74.682
-74.412
-73.602
-71.892
-69.205
-65.82
-62.015
-58.141
-54.515
-51.343
-48.993
-47.881
-48.099
-49.509
-51.876
-54.843
-58.111
-61.485
-64.698
-67.449
-69.535
-70.798
-71.16
-70.636
-69.229
-66.942
-63.817
-59.916
-55.313
-50.123
-44.446
-38.375
-32.015
-25.437
-18.698
-11.859
-4.971
1.894
8.665
15.28
21.702
27.9
33.871
39.627
45.188
50.613
55.957
61.267
66.605
72.008
77.5
83.102
88.834
94.733
100.874
107.335
114.176
121.451
129.195
137.435
146.21
155.506
165.296
175.541
186.175
197.142
208.403
219.913
231.614
243.423
255.206
266.817
278.13
289.008
299.305
308.846
317.418
324.862
331.06
335.923
339.394
341.406
341.889
340.794
338.107
333.848
328.069
320.827
312.16
302.128
290.838
278.467
265.246
251.378
237.029
222.348
207.477
192.583
177.824
163.328
149.178
135.431
122.152
109.419
97.335
85.993
75.43
65.621
56.501
48.016
40.118
32.764
25.884
19.376
13.158
7.185
1.445
-4.054
-9.329
-14.419
-19.379
-24.262
-29.097
-33.877
-38.591
-43.23
-47.779
-52.213
-56.482
-60.51
-64.243
-67.661
-70.763
-73.562
-76.063
-78.256
-80.135
-81.701
-82.957
-83.917
-84.589
-84.979
-85.105
-84.994
-84.687
-84.238
-83.691
-83.072
-82.405
-81.704
-80.986
-80.268
-79.559
-78.863
-78.186
-77.534
-76.917
-76.346
-75.826
-75.359
-74.943
-74.571
-74.24
-73.948
-73.691
-73.466
-73.271
-73.104
-72.965
-72.856
-72.777
-72.728
-72.705
-72.707
-72.729
-72.769
-72.824
-72.889
-72.962
-73.04
-73.12
-73.203
-73.286
-73.37
-73.454
-73.539
-73.623
-73.709
-73.797
-73.887
-73.981
-74.081
-74.189
-74.307
-74.438
-74.583
-74.747
-74.93
-75.137
-75.368
-75.626
-75.913
-76.229
-76.576
-76.956
-77.37
-77.818
-78.302
-78.822
-79.378
-79.971
-80.6
-81.263
-81.959
-82.686
-83.441
-84.221
-85.023
-85.843
-86.678
-87.524
-88.375
-89.227
-90.077
-90.917
-91.744
-92.552
-93.334
-94.086
-94.802
-95.475
-96.1
-96.672
-97.185
-97.633
-98.012
-98.316
-98.541
-98.68
-98.731
-98.689
-98.548
-98.307
-97.961
-97.507
-96.942
-96.266
-95.475
-94.569
-93.548
-92.41
-91.155
-89.785
-88.299
-86.698
-84.984
-83.158
-81.223
-79.181
-77.036
-74.793
-72.456
-70.029
-67.52
-64.934
-62.278
-59.559
-56.786
-53.965
-51.106
-48.218
-45.312
-42.397
-39.486
-36.59
-33.724
-30.901
-28.137
-25.444
-22.835
-20.326
-17.929
-15.661
-13.533
-11.557
-9.747
-8.115
-6.676
-5.442
-4.423
-3.629
-3.063
-2.733
-2.642
-2.795
-3.19
-3.824
-4.693
-5.794
-7.131
-8.704
-10.508
-12.535
-14.774
-17.206
-19.816
-22.581
-25.466
-28.437
-31.457
-34.489
-37.502
-40.466
-43.349
-46.118
-48.744
-51.188
-53.413
-55.383
-57.056
-58.414
-59.484
-60.285
-60.839
-61.211
-61.497
-61.867
-62.591
-63.834
-65.614
-67.959
-70.902
-74.397
-78.367
-82.448
-85.895
-88.186
-89.094
-88.464
-86.294
-82.63
-77.475
-71.412
-65.796
-61.742
-60.058
-61.292
-65.409
-72.35
-82.083
-93.619
-104.778
-113.215
-116.44
-112.019
-98.19
-73.053
-34.575
17.614
81.754
155.337
234.657
316.912
401.744
487.284
570.525
645.843
703.092
733.348
729.076
685.963
606.146
493.473
355.913
205.641
56.03
-76.805
-180.311
-248.287
-281.541
-286.867
-271.167
-242.356
-206.202
-168.471
-137.92
-118.168
-110.3
-111.68
-114.066
-113.79
-110.293
-104.704
-101.693
-102.804
-106.747
-112.095
-116.147
-117.324
-115.804
-111.891
-106.099
-99.078
-91.263
-83.108
-75.339
-68.641
-63.353
-59.639
-57.475
-56.67
-57.026
-58.331
-60.265
-62.471
-64.726
-66.893
-68.902
-70.74
-72.367
-73.724
-74.758
-75.435
-75.706
-75.492
-74.727
-73.362
-71.394
-68.864
-65.828
-62.346
-58.471
-54.262
-49.787
-45.091
-40.199
-35.108
-29.798
-24.265
-18.525
-12.615
-6.572
-0.414
5.863
12.259
18.776
25.422
32.212
39.198
46.456
54.018
61.875
69.975
78.231
86.588
95.031
103.54
112.106
120.726
129.396
138.148
147.044
156.103
165.316
174.624
183.923
193.154
202.299
211.359
220.355
229.269
238.048
246.654
255.041
263.129
270.803
277.889
284.176
289.518
293.814
297.005
299.074
299.976
299.644
298.027
295.085
290.791
285.146
278.133
269.738
260.016
249.077
237.098
224.289
210.806
196.78
182.333
167.578
152.639
137.663
122.772
108.082
93.738
79.877
66.648
54.205
42.633
31.97
22.209
13.324
5.305
-1.851
-8.168
-13.678
-18.419
-22.448
-25.816
-28.583
-30.865
-32.767
-34.4
-35.882
-37.287
-38.663
-40.047
-41.459
-42.917
-44.436
-46.017
-47.65
-49.333
-51.051
-52.787
-54.512
-56.163
-57.688
-59.043
-60.185
-61.091
-61.751
-62.154
-62.302
-62.213
-61.901
-61.387
-60.695
-59.839
-58.842
-57.728
-56.529
-55.285
-54.029
-52.786
-51.578
-50.423
-49.332
-48.317
-47.381
-46.52
-45.732
-45.014
-44.366
-43.788
-43.28
-42.838
-42.46
-42.14
-41.877
-41.668
-41.512
-41.409
-41.356
-41.356
-41.407
-41.513
-41.676
-41.894
-42.166
-42.491
-42.867
-43.292
-43.764
-44.28
-44.836
-45.43
-46.059
-46.722
-47.414
-48.134
-48.877
-49.641
-50.422
-51.217
-52.022
-52.833
-53.647
-54.46
-55.267
-56.066
-56.85
-57.617
-58.362
-59.081
-59.769
-60.425
-61.042
-61.62
-62.154
-62.642
-63.082
-63.472
-63.811
-64.097
-64.33
-64.51
-64.637
-64.712
-64.736
-64.711
-64.638
-64.52
-64.36
-64.162
-63.928
-63.663
-63.37
-63.055
-62.722
-62.375
-62.019
-61.659
-61.3
-60.945
-60.6
-60.267
-59.952
-59.657
-59.384
-59.137
-58.917
-58.725
-58.561
-58.426
-58.32
-58.242
-58.191
-58.164
-58.16
-58.175
-58.205
-58.248
-58.298
-58.35
-58.398
-58.436
-58.458
-58.457
-58.426
-58.358
-58.247
-58.085
-57.865
-57.581
-57.226
-56.794
-56.28
-55.677
-54.982
-54.191
-53.301
-52.31
-51.217
-50.022
-48.726
-47.329
-45.835
-44.247
-42.568
-40.803
-38.958
-37.039
-35.055
-33.014
-30.925
-28.8
-26.65
-24.49
-22.334
-20.196
-18.094
-16.042
-14.059
-12.16
-10.363
-8.681
-7.13
-5.723
-4.475
-3.4
-2.512
-1.823
-1.343
-1.082
-1.047
-1.243
-1.675
-2.342
-3.24
-4.369
-5.728
-7.326
-9.167
-11.254
-13.583
-16.146
-18.932
-21.925
-25.101
-28.422
-31.847
-35.333
-38.84
-42.336
-45.789
-49.159
-52.395
-55.434
-58.213
-60.678
-62.792
-64.527
-65.868
-66.817
-67.404
-67.688
-67.75
-67.687
-67.587
-67.54
-67.646
-67.996
-68.72
-69.996
-71.956
-74.664
-78.086
-82.037
-86.258
-90.501
-94.399
-97.461
-99.29
-99.628
-98.483
-96.306
-93.732
-91.368
-89.905
-90.078
-92.276
-96.494
-102.365
-108.763
-113.857
-115.725
-111.684
-98.184
-73.225
-35.914
13.584
71.918
137.122
209.503
288.354
375.19
469.54
565.251
656.083
733.082
785.669
807.66
792.928
736.966
641.099
509.006
350.362
183.088
25.804
-104.027
-193.938
-244.253
-261.393
-253.933
-233.489
-205.957
-176.547
-153.15
-137.756
-131.766
-133.266
-133.959
-130.566
-122.707
-111.567
-102.507
-97.55
-95.504
-95.433
-95.306
-93.867
-91.408
-87.921
-83.196
-77.459
-71.031
-64.108
-57.065
-50.321
-44.07
-38.682
-34.657
-32.131
-31.083
-31.437
-32.944
-35.363
-38.499
-42.064
-45.74
-49.317
-52.609
-55.466
-57.774
-59.405
-60.277
-60.358
-59.647
-58.157
-55.895
-52.883
-49.175
-44.848
-39.98
-34.649
-28.915
-22.854
-16.589
-10.236
-3.908
2.307
8.373
14.269
19.975
25.49
30.84
36.059
41.209
46.352
51.515
56.739
62.067
67.559
73.326
79.469
86.055
93.131
100.729
108.865
117.569
126.859
136.689
147.005
157.745
168.835
180.235
191.894
203.728
215.642
227.503
239.168
250.528
261.473
271.872
281.603
290.519
298.468
305.373
311.172
315.795
319.199
321.323
322.111
321.552
319.649
316.413
311.878
306.081
299.066
290.925
281.757
271.678
260.823
249.28
237.137
224.502
211.473
198.152
184.652
171.065
157.484
144.031
130.808
117.897
105.373
93.272
81.629
70.487
59.877
49.841
40.408
31.586
23.377
15.789
8.807
2.408
-3.449
-8.848
-13.854
-18.512
-22.856
-26.907
-30.69
-34.252
-37.641
-40.891
-44.027
-47.065
-50.017
-52.901
-55.722
-58.465
-61.096
-63.556
-65.803
-67.818
-69.592
-71.123
-72.407
-73.429
-74.177
-74.657
-74.877
-74.848
-74.58
-74.079
-73.36
-72.451
-71.393
-70.233
-69.008
-67.744
-66.459
-65.171
-63.897
-62.652
-61.445
-60.28
-59.157
-58.082
-57.06
-56.099
-55.202
-54.367
-53.59
-52.864
-52.187
-51.558
-50.975
-50.436
-49.939
-49.486
-49.077
-48.717
-48.406
-48.145
-47.931
-47.762
-47.637
-47.554
-47.51
-47.502
-47.528
-47.585
-47.672
-47.788
-47.931
-48.099
-48.29
-48.504
-48.739
-48.993
-49.265
-49.554
-49.858
-50.176
-50.506
-50.847
-51.197
-51.553
-51.914
-52.276
-52.637
-52.995
-53.345
-53.686
-54.015
-54.327
-54.622
-54.897
-55.149
-55.377
-55.578
-55.752
-55.897
-56.011
-56.095
-56.146
-56.165
-56.15
-56.101
-56.019
-55.904
-55.756
-55.576
-55.365
-55.125
-54.857
-54.564
-54.249
-53.913
-53.56
-53.194
-52.819
-52.438
-52.055
-51.675
-51.301
-50.939
-50.592
-50.264
-49.958
-49.679
-49.429
-49.212
-49.029
-48.882
-48.773
-48.703
-48.672
-48.679
-48.726
-48.809
-48.928
-49.081
-49.266
-49.479
-49.717
-49.976
-50.253
-50.542
-50.838
-51.136
-51.429
-51.712
-51.978
-52.219
-52.43
-52.603
-52.732
-52.809
-52.827
-52.781
-52.664
-52.47
-52.194
-51.832
-51.379
-50.833
-50.191
-49.452
-48.615
-47.68
-46.65
-45.526
-44.311
-43.01
-41.628
-40.17
-38.643
-37.057
-35.417
-33.735
-32.019
-30.281
-28.535
-26.797
-25.081
-23.403
-21.779
-20.227
-18.764
-17.407
-16.17
-15.065
-14.106
-13.306
-12.68
-12.244
-12.01
-11.99
-12.19
-12.613
-13.265
-14.147
-15.258
-16.59
-18.137
-19.897
-21.874
-24.074
-26.502
-29.154
-32.02
-35.081
-38.314
-41.695
-45.198
-48.792
-52.451
-56.136
-59.802
-63.409
-66.919
-70.283
-73.459
-76.373
-78.917
-81.061
-82.849
-84.344
-85.654
-86.808
-87.712
-88.367
-88.892
-89.285
-89.466
-89.315
-88.614
-87.443
-86.282
-85.517
-85.331
-85.926
-87.388
-89.791
-93.349
-97.698
-101.955
-105.359
-107.18
-107.597
-107.199
-105.667
-103.247
-99.155
-92.644
-86.638
-83.105
-84.183
-92.043
-102.112
-109.004
-109.06
-98.054
-76.526
-47.038
-7.547
44.802
111.735
195.306
291.215
391.432
491.416
586.585
673.968
749.975
804.962
826.81
804.737
734.244
619.167
470.991
306.096
141.249
-7.334
-127.237
-211.317
-259.078
-275.664
-267.807
-244.766
-213.318
-179.903
-153.456
-136.96
-131.282
-133.346
-133.839
-128.921
-118.427
-104.32
-92.721
-86.054
-83.23
-83.246
-84.001
-84.212
-84.104
-83.511
-81.98
-79.503
-76.215
-72.168
-67.636
-63.009
-58.512
-54.596
-51.87
-50.524
-50.536
-51.819
-54.089
-57.062
-60.498
-64.024
-67.256
-69.986
-72.083
-73.493
-74.22
-74.209
-73.415
-71.847
-69.534
-66.521
-62.842
-58.523
-53.61
-48.189
-42.366
-36.257
-29.936
-23.44
-16.788
-9.996
-3.086
3.904
10.958
18.068
25.222
32.399
39.57
46.702
53.788
60.841
67.888
74.958
82.059
89.178
96.294
103.389
110.458
117.504
124.524
131.523
138.521
145.569
152.743
160.112
167.717
175.564
183.641
191.928
200.418
209.098
217.957
226.974
236.104
245.3
254.508
263.641
272.579
281.158
289.166
296.399
302.695
307.926
311.992
314.804
316.266
316.301
314.839
311.815
307.182
300.899
292.945
283.354
272.212
259.664
245.912
231.17
215.63
199.469
182.855
165.949
148.927
131.958
115.216
98.892
83.173
68.25
54.29
41.403
29.661
19.082
9.64
1.286
-6.033
-12.382
-17.825
-22.424
-26.263
-29.431
-32.034
-34.215
-36.108
-37.855
-39.577
-41.361
-43.272
-45.353
-47.621
-50.069
-52.683
-55.434
-58.296
-61.249
-64.258
-67.283
-70.266
-73.13
-75.806
-78.236
-80.373
-82.186
-83.657
-84.772
-85.536
-85.966
-86.085
-85.923
-85.506
-84.853
-83.993
-82.957
-81.784
-80.522
-79.207
-77.869
-76.533
-75.217
-73.938
-72.709
-71.535
-70.415
-69.347
-68.332
-67.37
-66.466
-65.619
-64.829
-64.092
-63.404
-62.764
-62.17
-61.621
-61.118
-60.658
-60.242
-59.871
-59.547
-59.272
-59.043
-58.858
-58.714
-58.609
-58.538
-58.498
-58.486
-58.497
-58.528
-58.577
-58.64
-58.716
-58.802
-58.894
-58.99
-59.088
-59.185
-59.28
-59.371
-59.456
-59.535
-59.606
-59.668
-59.722
-59.767
-59.802
-59.827
-59.842
-59.847
-59.844
-59.832
-59.814
-59.789
-59.761
-59.732
-59.702
-59.676
-59.654
-59.64
-59.637
-59.645
-59.668
-59.708
-59.767
-59.847
-59.95
-60.078
-60.233
-60.418
-60.633
-60.879
-61.157
-61.469
-61.815
-62.193
-62.605
-63.05
-63.527
-64.034
-64.571
-65.136
-65.725
-66.337
-66.968
-67.613
-68.27
-68.933
-69.597
-70.259
-70.913
-71.554
-72.176
-72.775
-73.345
-73.879
-74.373
-74.82
-75.214
-75.549
-75.819
-76.019
-76.143
-76.185
-76.142
-76.008
-75.78
-75.453
-75.024
-74.49
-73.848
-73.098
-72.236
-71.264
-70.183
-68.993
-67.698
-66.3
-64.804
-63.214
-61.537
-59.779
-57.946
-56.045
-54.085
-52.076
-50.026
-47.945
-45.847
-43.741
-41.645
-39.57
-37.534
-35.55
-33.635
-31.804
-30.073
-28.456
-26.964
-25.61
-24.406
-23.364
-22.497
-21.816
-21.329
-21.045
-20.971
-21.109
-21.465
-22.038
-22.822
-23.811
-25.002
-26.396
-28
-29.818
-31.848
-34.085
-36.52
-39.141
-41.933
-44.869
-47.907
-51.004
-54.12
-57.217
-60.268
-63.241
-66.09
-68.764
-71.201
-73.342
-75.152
-76.602
-77.664
-78.334
-78.619
-78.547
-78.203
-77.683
-77.071
-76.468
-75.968
-75.654
-75.662
-76.168
-77.293
-79.104
-81.591
-84.591
-87.895
-91.278
-94.381
-96.758
-98.047
-98.027
-96.672
-94.338
-91.699
-89.427
-88.215
-88.934
-91.459
-95.324
-100.794
-106.788
-112.982
-118.975
-120.479
-113.95
-95.262
-60.026
-9.846
53.135
125.819
202.51
281.095
358.892
432.878
502.707
565.948
619.43
658.609
676.46
666.199
622.102
542.45
428.068
284.855
126.499
-30.603
-165.739
-261.83
-314.97
-330.469
-322.598
-306.595
-289.126
-270.062
-245.224
-212.478
-174.158
-136.351
-106.004
-84.882
-72.601
-67.161
-64.927
-65.694
-69.255
-74.235
-80.076
-84.848
-86.727
-85.476
-81.217
-74.509
-66.321
-57.525
-48.892
-41.294
-35.5
-31.795
-30.163
-30.449
-32.29
-35.289
-39.081
-43.173
-47.085
-50.559
-53.444
-55.663
-57.199
-57.978
-57.924
-57.034
-55.332
-52.864
-49.68
-45.821
-41.359
-36.416
-31.147
-25.729
-20.319
-15.009
-9.865
-4.939
-0.277
4.072
8.087
11.772
15.146
18.245
21.119
23.83
26.491
29.234
32.2
35.548
39.401
43.837
48.924
54.708
61.221
68.492
76.529
85.331
94.905
105.256
116.373
128.217
140.696
153.695
167.094
180.748
194.534
208.352
222.092
235.655
248.959
261.91
274.412
286.368
297.641
308.061
317.475
325.741
332.751
338.433
342.724
345.591
347.008
346.941
345.37
342.282
337.644
331.449
323.712
314.452
303.754
291.758
278.616
264.504
249.603
234.064
218.036
201.661
185.061
168.373
151.736
135.291
119.208
103.641
88.729
74.62
61.406
49.127
37.805
27.422
17.934
9.315
1.528
-5.47
-11.705
-17.228
-22.101
-26.394
-30.216
-33.665
-36.835
-39.835
-42.742
-45.603
-48.458
-51.318
-54.168
-57.008
-59.823
-62.596
-65.323
-67.982
-70.546
-72.982
-75.235
-77.258
-79.013
-80.46
-81.574
-82.344
-82.76
-82.832
-82.585
-82.04
-81.222
-80.162
-78.88
-77.405
-75.772
-74.014
-72.175
-70.292
-68.394
-66.509
-64.66
-62.863
-61.135
-59.484
-57.911
-56.418
-55.008
-53.683
-52.445
-51.296
-50.234
-49.257
-48.362
-47.545
-46.807
-46.144
-45.556
-45.042
-44.6
-44.23
-43.933
-43.71
-43.557
-43.473
-43.454
-43.496
-43.596
-43.75
-43.954
-44.203
-44.494
-44.822
-45.185
-45.578
-46
-46.446
-46.912
-47.397
-47.898
-48.413
-48.938
-49.473
-50.015
-50.563
-51.114
-51.669
-52.225
-52.78
-53.334
-53.885
-54.432
-54.974
-55.511
-56.041
-56.564
-57.079
-57.585
-58.082
-58.57
-59.048
-59.516
-59.974
-60.422
-60.859
-61.285
-61.701
-62.104
-62.494
-62.871
-63.232
-63.577
-63.904
-64.211
-64.497
-64.76
-64.997
-65.206
-65.384
-65.527
-65.634
-65.7
-65.722
-65.695
-65.616
-65.481
-65.287
-65.028
-64.702
-64.305
-63.833
-63.282
-62.65
-61.932
-61.125
-60.228
-59.237
-58.15
-56.965
-55.682
-54.302
-52.823
-51.246
-49.574
-47.81
-45.955
-44.015
-41.994
-39.897
-37.731
-35.504
-33.225
-30.902
-28.547
-26.172
-23.79
-21.415
-19.063
-16.749
-14.49
-12.301
-10.198
-8.199
-6.315
-4.562
-2.952
-1.5
-0.221
0.871
1.764
2.447
2.907
3.139
3.132
2.882
2.392
1.664
0.697
-0.51
-1.965
-3.675
-5.637
-7.846
-10.292
-12.961
-15.838
-18.894
-22.086
-25.374
-28.716
-32.077
-35.435
-38.76
-42.014
-45.154
-48.119
-50.858
-53.34
-55.533
-57.414
-58.981
-60.241
-61.232
-62.028
-62.698
-63.312
-63.938
-64.634
-65.473
-66.533
-67.904
-69.723
-72.081
-75.003
-78.443
-82.202
-86.002
-89.557
-92.482
-94.312
-94.692
-93.381
-90.407
-86.302
-81.732
-77.413
-74.158
-72.609
-73.211
-76.228
-81.261
-86.987
-91.637
-93.031
-88.82
-76.917
-55.238
-21.925
24.093
82.146
149.634
222.934
297.83
371.774
444.41
514.693
580.012
633.915
665.853
665.869
627.708
551.466
443.264
312.952
172.116
31.875
-95.966
-199.873
-271.871
-307.998
-309.798
-286.327
-249.032
-209.044
-177.578
-158.219
-148.814
-145.229
-139.209
-126.859
-109.471
-89.584
-72.2
-59.997
-52.551
-48.773
-46.891
-46.016
-46
-46.645
-47.855
-49.257
-50.39
-51.169
-51.54
-51.459
-51.088
-50.556
-50.011
-49.742
-50.001
-50.822
-52.132
-53.803
-55.656
-57.566
-59.405
-60.969
-62.012
-62.369
-61.976
-60.838
-59
-56.513
-53.417
-49.791
-45.766
-41.455
-36.941
-32.286
-27.504
-22.597
-17.582
-12.462
-7.232
-1.898
3.542
9.095
14.752
20.511
26.373
32.339
38.418
44.622
50.95
57.405
63.991
70.698
77.513
84.414
91.363
98.339
105.337
112.356
119.401
126.49
133.648
140.92
148.381
156.081
164.058
172.325
180.863
189.657
198.687
207.931
217.371
226.96
236.621
246.276
255.841
265.207
274.259
282.831
290.709
297.707
303.666
308.461
312.015
314.254
315.11
314.534
312.478
308.935
303.937
297.513
289.704
280.568
270.172
258.647
246.189
232.981
219.195
204.986
190.467
175.771
161.034
146.393
131.985
117.918
104.267
91.114
78.541
66.627
55.462
45.081
35.458
26.574
18.395
10.898
4.08
-2.093
-7.683
-12.755
-17.394
-21.66
-25.587
-29.218
-32.602
-35.798
-38.882
-41.898
-44.852
-47.753
-50.601
-53.402
-56.173
-58.902
-61.555
-64.092
-66.461
-68.629
-70.589
-72.327
-73.831
-75.086
-76.069
-76.774
-77.219
-77.414
-77.374
-77.111
-76.633
-75.963
-75.138
-74.197
-73.183
-72.128
-71.053
-69.979
-68.925
-67.907
-66.94
-66.033
-65.183
-64.393
-63.667
-63.009
-62.424
-61.912
-61.467
-61.085
-60.76
-60.487
-60.263
-60.087
-59.953
-59.859
-59.805
-59.79
-59.815
-59.88
-59.982
-60.118
-60.284
-60.478
-60.695
-60.932
-61.185
-61.449
-61.722
-62.001
-62.282
-62.564
-62.845
-63.121
-63.392
-63.654
-63.907
-64.149
-64.38
-64.598
-64.802
-64.993
-65.17
-65.333
-65.481
-65.615
-65.735
-65.84
-65.93
-66.006
-66.068
-66.116
-66.151
-66.175
-66.187
-66.188
-66.181
-66.167
-66.147
-66.122
-66.095
-66.067
-66.039
-66.012
-65.989
-65.971
-65.958
-65.951
-65.952
-65.962
-65.981
-66.01
-66.05
-66.101
-66.163
-66.237
-66.322
-66.418
-66.524
-66.639
-66.76
-66.888
-67.02
-67.153
-67.286
-67.415
-67.538
-67.653
-67.754
-67.84
-67.905
-67.945
-67.957
-67.934
-67.873
-67.768
-67.615
-67.409
-67.145
-66.82
-66.428
-65.965
-65.427
-64.81
-64.11
-63.324
-62.448
-61.48
-60.418
-59.262
-58.009
-56.662
-55.22
-53.685
-52.061
-50.348
-48.553
-46.678
-44.728
-42.711
-40.633
-38.501
-36.324
-34.114
-31.879
-29.635
-27.393
-25.168
-22.974
-20.826
-18.738
-16.727
-14.806
-12.989
-11.289
-9.72
-8.296
-7.031
-5.939
-5.034
-4.325
-3.824
-3.539
-3.478
-3.645
-4.042
-4.667
-5.521
-6.608
-7.939
-9.519
-11.35
-13.427
-15.742
-18.284
-21.035
-23.972
-27.055
-30.244
-33.498
-36.782
-40.07
-43.331
-46.524
-49.601
-52.501
-55.171
-57.569
-59.666
-61.438
-62.879
-63.991
-64.81
-65.4
-65.838
-66.208
-66.588
-67.052
-67.688
-68.579
-69.842
-71.621
-74.004
-77.017
-80.593
-84.55
-88.668
-92.724
-96.384
-99.238
-100.965
-101.354
-100.454
-98.651
-96.377
-94.067
-92.247
-91.342
-91.593
-93.18
-95.742
-98.215
-99.399
-97.117
-89.077
-74.184
-50.763
-18.629
21.697
71.971
131.569
199.773
275.954
355.64
436.269
515.191
587.723
648.67
689.681
702.531
680.936
624.059
536.224
422.835
293.78
159.145
29.978
-78.887
-158.669
-205.908
-222.835
-219.769
-204.804
-184.03
-163.154
-143.355
-126.93
-115.411
-106.126
-97.813
-89.127
-79.743
-72.49
-68.802
-68.835
-71.621
-74.84
-77.025
-77.281
-75.277
-71.378
-65.842
-59.076
-51.78
-44.493
-37.855
-32.64
-29.221
-27.739
-28.217
-30.406
-34.007
-38.754
-44.248
-50.023
-55.742
-61.14
-66.055
-70.437
-74.215
-77.302
-79.625
-81.139
-81.82
-81.663
-80.67
-78.844
-76.213
-72.832
-68.793
-64.209
-59.185
-53.823
-48.182
-42.299
-36.209
-29.939
-23.524
-16.994
-10.364
-3.642
3.157
10.011
16.895
23.79
30.703
37.655
44.67
51.774
58.966
66.232
73.555
80.927
88.348
95.817
103.333
110.899
118.536
126.293
134.233
142.401
150.816
159.469
168.334
177.386
186.601
195.955
205.416
214.926
224.409
233.797
243.015
251.971
260.555
268.603
275.928
282.377
287.824
292.179
295.374
297.338
298.008
297.345
295.331
291.985
287.345
281.437
274.298
265.98
256.551
246.157
234.973
223.148
210.822
198.122
185.164
172.087
159.039
146.132
133.456
121.076
109.038
97.417
86.289
75.723
65.788
56.493
47.815
39.748
32.279
25.385
19.04
13.181
7.714
2.591
-2.222
-6.745
-10.978
-14.954
-18.713
-22.295
-25.745
-29.084
-32.315
-35.451
-38.504
-41.465
-44.32
-47.025
-49.512
-51.744
-53.703
-55.38
-56.782
-57.909
-58.749
-59.304
-59.574
-59.565
-59.289
-58.752
-57.961
-56.936
-55.706
-54.311
-52.805
-51.231
-49.619
-47.996
-46.382
-44.796
-43.258
-41.779
-40.366
-39.028
-37.775
-36.614
-35.56
-34.617
-33.788
-33.072
-32.463
-31.958
-31.553
-31.245
-31.03
-30.906
-30.869
-30.916
-31.049
-31.264
-31.556
-31.922
-32.352
-32.84
-33.378
-33.959
-34.572
-35.211
-35.865
-36.529
-37.195
-37.856
-38.505
-39.135
-39.742
-40.317
-40.858
-41.358
-41.815
-42.224
-42.585
-42.895
-43.154
-43.362
-43.52
-43.628
-43.688
-43.703
-43.674
-43.605
-43.499
-43.361
-43.193
-43.002
-42.792
-42.569
-42.339
-42.107
-41.88
-41.663
-41.462
-41.284
-41.132
-41.013
-40.931
-40.892
-40.898
-40.955
-41.065
-41.231
-41.455
-41.739
-42.083
-42.488
-42.953
-43.478
-44.059
-44.697
-45.387
-46.126
-46.912
-47.74
-48.605
-49.503
-50.428
-51.376
-52.34
-53.314
-54.292
-55.269
-56.239
-57.195
-58.133
-59.045
-59.927
-60.774
-61.58
-62.341
-63.052
-63.71
-64.312
-64.854
-65.335
-65.753
-66.107
-66.397
-66.623
-66.785
-66.886
-66.928
-66.911
-66.84
-66.718
-66.548
-66.335
-66.083
-65.795
-65.479
-65.137
-64.776
-64.401
-64.017
-63.629
-63.244
-62.865
-62.498
-62.148
-61.82
-61.517
-61.245
-61.007
-60.807
-60.646
-60.528
-60.455
-60.427
-60.446
-60.511
-60.621
-60.776
-60.974
-61.212
-61.488
-61.797
-62.138
-62.505
-62.894
-63.3
-63.718
-64.144
-64.57
-64.991
-65.401
-65.793
-66.16
-66.495
-66.791
-67.041
-67.239
-67.378
-67.451
-67.452
-67.374
-67.213
-66.962
-66.616
-66.172
-65.625
-64.972
-64.212
-63.343
-62.364
-61.276
-60.079
-58.776
-57.37
-55.863
-54.259
-52.564
-50.782
-48.92
-46.985
-44.985
-42.931
-40.833
-38.703
-36.558
-34.409
-32.273
-30.166
-28.104
-26.103
-24.178
-22.343
-20.611
-18.998
-17.518
-16.186
-15.02
-14.031
-13.232
-12.636
-12.25
-12.086
-12.147
-12.434
-12.947
-13.687
-14.661
-15.882
-17.359
-19.095
-21.089
-23.333
-25.815
-28.517
-31.413
-34.458
-37.609
-40.817
-44.04
-47.251
-50.413
-53.487
-56.418
-59.132
-61.573
-63.707
-65.51
-66.972
-68.088
-68.853
-69.307
-69.547
-69.65
-69.677
-69.691
-69.745
-69.935
-70.402
-71.289
-72.705
-74.8
-77.777
-81.577
-85.909
-90.529
-94.973
-99.275
-104.161
-109.012
-112.585
-113.159
-107.887
-97.666
-86.305
-77.751
-77.197
-84.73
-95.777
-106.341
-111.217
-108.472
-99.321
-82.793
-58.846
-27.221
12.959
59.634
112.258
171.962
239.342
316.167
400.884
488.407
573.06
647.794
706.091
742.421
752.504
732.629
681.15
599.855
490.354
359.46
219.173
82.489
-33.298
-116.526
-165.662
-184.789
-185.139
-176.631
-164.083
-150.756
-137.023
-124.07
-113.067
-102.682
-92.147
-80.211
-67.298
-56.551
-49.586
-47.056
-48.419
-51.553
-55.513
-59.962
-64.253
-68.023
-70.724
-71.925
-71.81
-70.702
-68.766
-66.241
-63.443
-60.763
-58.718
-57.587
-57.324
-57.784
-58.763
-60.049
-61.44
-62.695
-63.525
-63.752
-63.316
-62.212
-60.486
-58.18
-55.323
-51.968
-48.196
-44.078
-39.661
-34.987
-30.073
-24.954
-19.691
-14.337
-8.931
-3.516
1.884
7.251
12.543
17.736
22.839
27.87
32.88
37.929
43.04
48.22
53.467
58.78
64.182
69.707
75.368
81.191
87.193
93.4
99.887
106.714
113.9
121.442
129.304
137.437
145.845
154.559
163.585
172.924
182.544
192.393
202.446
212.668
223.004
233.37
243.629
253.644
263.319
272.567
281.311
289.472
296.912
303.483
309.083
313.628
317.066
319.357
320.44
320.264
318.813
316.116
312.225
307.198
301.063
293.857
285.635
276.481
266.523
255.882
244.639
232.87
220.639
208.018
195.1
181.975
168.709
155.351
141.961
128.619
115.43
102.501
89.912
77.714
65.939
54.642
43.89
33.747
24.264
15.474
7.395
0.04
-6.572
-12.432
-17.56
-22.007
-25.853
-29.19
-32.092
-34.615
-36.816
-38.767
-40.54
-42.196
-43.784
-45.332
-46.864
-48.408
-49.986
-51.614
-53.283
-54.968
-56.629
-58.212
-59.678
-61.002
-62.156
-63.114
-63.856
-64.371
-64.66
-64.737
-64.617
-64.308
-63.823
-63.177
-62.393
-61.501
-60.534
-59.53
-58.52
-57.528
-56.575
-55.68
-54.855
-54.11
-53.447
-52.861
-52.35
-51.914
-51.551
-51.261
-51.04
-50.883
-50.787
-50.744
-50.75
-50.801
-50.894
-51.024
-51.19
-51.389
-51.62
-51.884
-52.179
-52.503
-52.854
-53.228
-53.621
-54.031
-54.455
-54.887
-55.326
-55.767
-56.207
-56.646
-57.081
-57.509
-57.93
-58.342
-58.745
-59.136
-59.516
-59.884
-60.238
-60.58
-60.908
-61.222
-61.522
-61.808
-62.079
-62.336
-62.579
-62.806
-63.019
-63.217
-63.4
-63.568
-63.722
-63.861
-63.988
-64.102
-64.204
-64.296
-64.378
-64.451
-64.517
-64.577
-64.631
-64.681
-64.727
-64.771
-64.814
-64.856
-64.899
-64.944
-64.991
-65.041
-65.096
-65.154
-65.218
-65.287
-65.362
-65.444
-65.532
-65.628
-65.73
-65.84
-65.957
-66.082
-66.213
-66.352
-66.496
-66.646
-66.802
-66.961
-67.123
-67.287
-67.451
-67.614
-67.774
-67.93
-68.08
-68.222
-68.354
-68.476
-68.584
-68.677
-68.755
-68.814
-68.855
-68.876
-68.875
-68.851
-68.804
-68.733
-68.638
-68.517
-68.37
-68.197
-67.999
-67.774
-67.523
-67.246
-66.945
-66.618
-66.268
-65.896
-65.502
-65.087
-64.655
-64.206
-63.742
-63.265
-62.778
-62.282
-61.78
-61.273
-60.764
-60.256
-59.749
-59.246
-58.748
-58.258
-57.776
-57.305
-56.845
-56.398
-55.965
-55.545
-55.142
-54.754
-54.382
-54.027
-53.69
-53.371
-53.069
-52.785
-52.519
-52.271
-52.041
-51.827
-51.63
-51.448
-51.281
-51.129
-50.99
-50.863
-50.748
-50.644
-50.551
-50.467
-50.392
-50.326
-50.268
-50.217
-50.174
-50.139
-50.111
-50.092
-50.081
-50.079
-50.086
-50.103
-50.13
-50.168
-50.217
-50.277
-50.349
-50.434
-50.53
-50.64
-50.762
-50.898
-51.046
-51.207
-51.38
-51.564
-51.76
-51.965
-52.179
-52.4
-52.628
-52.859
-53.092
-53.326
-53.556
-53.781
-53.996
-54.199
-54.384
-54.549
-54.688
-54.797
-54.872
-54.908
-54.899
-54.842
-54.731
-54.561
-54.328
-54.028
-53.655
-53.204
-52.673
-52.057
-51.354
-50.56
-49.673
-48.692
-47.616
-46.445
-45.178
-43.816
-42.359
-40.811
-39.174
-37.452
-35.649
-33.772
-31.828
-29.826
-27.779
-25.696
-23.59
-21.475
-19.361
-17.264
-15.196
-13.173
-11.208
-9.318
-7.517
-5.822
-4.251
-2.82
-1.543
-0.434
0.497
1.242
1.79
2.138
2.276
2.201
1.907
1.384
0.629
-0.36
-1.585
-3.04
-4.713
-6.59
-8.648
-10.857
-13.191
-15.622
-18.122
-20.665
-23.215
-25.738
-28.198
-30.559
-32.801
-34.901
-36.82
-38.522
-39.983
-41.2
-42.227
-43.121
-43.885
-44.579
-45.3
-46.216
-47.633
-49.741
-52.55
-56.079
-60.338
-65.242
-70.681
-76.219
-80.991
-84.385
-86.121
-86.028
-84.168
-80.666
-75.631
-69.797
-64.598
-61.186
-60.323
-62.378
-67.158
-74.396
-83.739
-93.972
-102.94
-108.344
-107.842
-99.434
-81.739
-53.227
-12.487
41.019
107.029
183.573
266.547
351.683
434.526
512.182
585.289
653.921
716.716
768.593
798.002
792.561
742.075
642.508
500.168
329.924
153.36
-6.829
-131.931
-211.776
-247.983
-248.705
-226.596
-194.709
-160.561
-131.061
-110.705
-98.844
-94.812
-94.238
-90.921
-83.904
-73.91
-63.395
-56.692
-54.684
-56.19
-59.91
-63.599
-65.724
-65.794
-63.584
-59.306
-53.438
-46.443
-38.707
-30.697
-23.106
-16.655
-11.8
-8.721
-7.335
-7.407
-8.714
-11.023
-14.003
-17.27
-20.539
-23.626
-26.423
-28.878
-30.932
-32.514
-33.572
-34.074
-33.99
-33.298
-31.983
-30.039
-27.489
-24.376
-20.752
-16.678
-12.21
-7.393
-2.282
3.06
8.584
14.261
20.064
25.976
31.989
38.09
44.272
50.542
56.901
63.351
69.893
76.519
83.216
89.977
96.801
103.701
110.689
117.762
124.905
132.095
139.304
146.518
153.732
160.933
168.112
175.277
182.444
189.656
196.974
204.429
212.028
219.756
227.577
235.467
243.415
251.405
259.41
267.385
275.266
282.999
290.531
297.778
304.624
310.908
316.445
321.088
324.733
327.305
328.753
329.014
328.015
325.699
322.044
317.049
310.725
303.075
294.094
283.823
272.361
259.866
246.531
232.523
217.977
203.012
187.757
172.357
156.981
141.787
126.891
112.402
98.428
85.09
72.532
60.856
50.1
40.259
31.296
23.181
15.902
9.439
3.739
-1.272
-5.689
-9.616
-13.119
-16.259
-19.109
-21.749
-24.281
-26.787
-29.303
-31.845
-34.415
-37.017
-39.662
-42.354
-45.064
-47.75
-50.363
-52.842
-55.153
-57.275
-59.179
-60.841
-62.228
-63.319
-64.114
-64.625
-64.864
-64.845
-64.577
-64.073
-63.365
-62.489
-61.483
-60.391
-59.244
-58.065
-56.877
-55.702
-54.553
-53.447
-52.387
-51.373
-50.407
-49.492
-48.632
-47.83
-47.084
-46.392
-45.749
-45.149
-44.591
-44.072
-43.589
-43.141
-42.728
-42.349
-42.007
-41.703
-41.44
-41.216
-41.03
-40.881
-40.767
-40.685
-40.633
-40.609
-40.61
-40.635
-40.682
-40.751
-40.839
-40.947
-41.074
-41.217
-41.376
-41.551
-41.74
-41.943
-42.16
-42.39
-42.633
-42.89
-43.159
-43.441
-43.735
-44.041
-44.358
-44.684
-45.019
-45.363
-45.713
-46.071
-46.434
-46.804
-47.178
-47.557
-47.941
-48.33
-48.722
-49.117
-49.516
-49.916
-50.317
-50.72
-51.122
-51.524
-51.924
-52.323
-52.72
-53.113
-53.503
-53.888
-54.268
-54.642
-55.009
-55.369
-55.72
-56.062
-56.395
-56.718
-57.031
-57.334
-57.626
-57.908
-58.178
-58.437
-58.684
-58.918
-59.141
-59.351
-59.548
-59.733
-59.906
-60.066
-60.214
-60.35
-60.474
-60.585
-60.684
-60.772
-60.847
-60.911
-60.964
-61.006
-61.039
-61.063
-61.078
-61.086
-61.088
-61.084
-61.076
-61.065
-61.052
-61.037
-61.022
-61.009
-60.998
-60.991
-60.989
-60.993
-61.005
-61.027
-61.058
-61.1
-61.155
-61.223
-61.306
-61.404
-61.518
-61.65
-61.8
-61.968
-62.157
-62.365
-62.594
-62.842
-63.109
-63.394
-63.697
-64.015
-64.347
-64.692
-65.046
-65.409
-65.776
-66.146
-66.515
-66.879
-67.234
-67.577
-67.903
-68.208
-68.485
-68.732
-68.941
-69.109
-69.231
-69.3
-69.313
-69.263
-69.146
-68.955
-68.688
-68.337
-67.899
-67.369
-66.745
-66.022
-65.2
-64.276
-63.249
-62.119
-60.886
-59.551
-58.116
-56.583
-54.956
-53.237
-51.434
-49.552
-47.6
-45.585
-43.519
-41.413
-39.282
-37.137
-34.991
-32.861
-30.761
-28.708
-26.72
-24.81
-22.995
-21.288
-19.708
-18.269
-16.988
-15.874
-14.939
-14.192
-13.644
-13.305
-13.185
-13.281
-13.593
-14.116
-14.85
-15.804
-16.982
-18.38
-19.99
-21.804
-23.808
-25.996
-28.349
-30.832
-33.407
-36.028
-38.656
-41.276
-43.871
-46.431
-48.935
-51.328
-53.561
-55.594
-57.385
-58.925
-60.203
-61.181
-61.892
-62.435
-62.947
-63.677
-64.849
-66.513
-68.706
-71.425
-74.523
-77.929
-81.454
-84.566
-86.76
-87.708
-87.171
-85.214
-82.134
-77.975
-72.951
-67.717
-63.025
-59.784
-58.736
-60.065
-63.624
-69.323
-76.895
-85.699
-94.622
-101.795
-105.221
-103.138
-93.978
-76.301
-48.608
-9.623
41.251
102.923
172.757
247.582
323.612
398.16
470.107
537.383
597.607
646.891
678.09
684.362
659.149
596.946
497.177
364.153
209.08
50.306
-92.095
-200.819
-267.071
-293.185
-287.523
-261.639
-226.392
-188.413
-154.556
-129.972
-115.602
-110.876
-110.522
-107.853
-100.824
-89.79
-77.994
-70.032
-66.924
-67.773
-71.146
-74.719
-77.402
-78.952
-78.831
-77.009
-73.754
-69.218
-63.724
-57.747
-51.639
-45.86
-41.04
-37.489
-35.24
-34.228
-34.217
-34.955
-36.286
-37.996
-39.819
-41.59
-43.2
-44.568
-45.677
-46.493
-46.957
-47.023
-46.641
-45.767
-44.381
-42.479
-40.069
-37.175
-33.818
-30.016
-25.788
-21.153
-16.133
-10.756
-5.059
0.925
7.163
13.613
20.229
26.969
33.792
40.663
47.568
54.489
61.418
68.357
75.304
82.253
89.197
96.121
103.03
109.94
116.864
123.817
130.828
137.93
145.179
152.654
160.407
168.469
176.853
185.535
194.497
203.718
213.171
222.83
232.646
242.538
252.43
262.241
271.865
281.185
290.04
298.212
305.53
311.844
317.036
321.033
323.766
325.166
325.188
323.787
320.942
316.67
310.987
303.914
295.508
285.828
274.996
263.207
250.622
237.394
223.668
209.552
195.158
180.62
166.054
151.583
137.341
123.422
109.928
96.965
84.614
72.966
62.071
51.912
42.484
33.777
25.768
18.458
11.833
5.845
0.448
-4.419
-8.849
-12.903
-16.641
-20.135
-23.445
-26.648
-29.803
-32.93
-36.043
-39.15
-42.254
-45.365
-48.49
-51.601
-54.672
-57.663
-60.516
-63.193
-65.671
-67.918
-69.914
-71.632
-73.049
-74.166
-74.995
-75.547
-75.837
-75.874
-75.67
-75.253
-74.656
-73.914
-73.07
-72.154
-71.189
-70.201
-69.207
-68.224
-67.267
-66.342
-65.448
-64.586
-63.76
-62.973
-62.228
-61.525
-60.86
-60.228
-59.626
-59.05
-58.499
-57.971
-57.462
-56.975
-56.507
-56.061
-55.64
-55.243
-54.871
-54.521
-54.194
-53.886
-53.596
-53.324
-53.065
-52.82
-52.586
-52.363
-52.15
-51.947
-51.755
-51.571
-51.397
-51.232
-51.076
-50.931
-50.797
-50.673
-50.562
-50.465
-50.381
-50.313
-50.261
-50.225
-50.207
-50.207
-50.225
-50.262
-50.318
-50.394
-50.49
-50.607
-50.744
-50.901
-51.08
-51.278
-51.498
-51.737
-51.996
-52.273
-52.568
-52.879
-53.205
-53.545
-53.898
-54.262
-54.635
-55.016
-55.403
-55.794
-56.188
-56.582
-56.975
-57.366
-57.751
-58.129
-58.498
-58.857
-59.203
-59.534
-59.848
-60.144
-60.42
-60.674
-60.905
-61.111
-61.291
-61.444
-61.569
-61.665
-61.731
-61.768
-61.774
-61.75
-61.695
-61.61
-61.494
-61.349
-61.174
-60.97
-60.738
-60.479
-60.192
-59.881
-59.544
-59.185
-58.804
-58.403
-57.983
-57.547
-57.097
-56.635
-56.163
-55.684
-55.201
-54.716
-54.232
-53.752
-53.278
-52.813
-52.36
-51.921
-51.5
-51.098
-50.719
-50.364
-50.036
-49.736
-49.468
-49.233
-49.033
-48.869
-48.743
-48.657
-48.612
-48.609
-48.649
-48.733
-48.861
-49.034
-49.25
-49.51
-49.812
-50.156
-50.54
-50.962
-51.419
-51.91
-52.43
-52.977
-53.547
-54.136
-54.74
-55.353
-55.972
-56.591
-57.205
-57.81
-58.399
-58.968
-59.51
-60.02
-60.492
-60.92
-61.297
-61.617
-61.875
-62.064
-62.179
-62.214
-62.163
-62.022
-61.785
-61.449
-61.008
-60.46
-59.801
-59.028
-58.141
-57.137
-56.017
-54.782
-53.431
-51.968
-50.395
-48.716
-46.935
-45.056
-43.086
-41.031
-38.899
-36.698
-34.436
-32.124
-29.774
-27.398
-25.01
-22.625
-20.257
-17.921
-15.635
-13.414
-11.273
-9.226
-7.288
-5.473
-3.796
-2.27
-0.912
0.266
1.252
2.033
2.601
2.947
3.065
2.954
2.614
2.045
1.243
0.201
-1.088
-2.626
-4.409
-6.432
-8.681
-11.141
-13.786
-16.579
-19.482
-22.456
-25.464
-28.477
-31.469
-34.403
-37.236
-39.913
-42.378
-44.591
-46.518
-48.133
-49.431
-50.419
-51.129
-51.629
-51.983
-52.265
-52.55
-52.905
-53.408
-54.145
-55.193
-56.663
-58.699
-61.361
-64.641
-68.44
-72.475
-76.463
-80.13
-83.056
-84.796
-85.064
-83.671
-80.772
-77.003
-72.928
-69.077
-66.142
-64.559
-64.494
-66.128
-68.98
-71.519
-72.282
-69.052
-58.561
-39.188
-10.028
29.21
75.705
128.073
187.44
253.923
329.689
414.847
503.759
590.458
666.398
721.561
749.293
742.658
696.413
610.741
488.829
340.377
182.826
34.405
-87.448
-170.63
-215.567
-228.472
-217.979
-195.377
-166.036
-134.771
-109.16
-91.221
-82.49
-81.179
-79.24
-73.525
-63.849
-51.752
-42.699
-38.8
-38.987
-42.249
-46.497
-50.395
-53.96
-56.92
-58.853
-59.765
-59.811
-59.064
-57.729
-56.076
-54.233
-52.528
-51.467
-51.206
-51.693
-52.823
-54.341
-56.016
-57.726
-59.27
-60.395
-60.984
-60.976
-60.37
-59.25
-57.671
-55.654
-53.245
-50.485
-47.409
-44.06
-40.477
-36.688
-32.731
-28.635
-24.416
-20.089
-15.657
-11.111
-6.432
-1.591
3.441
8.676
14.122
19.78
25.643
31.709
37.966
44.392
50.967
57.677
64.513
71.473
78.548
85.718
92.953
100.221
107.504
114.797
122.101
129.416
136.757
144.151
151.649
159.319
167.209
175.344
183.72
192.316
201.112
210.086
219.215
228.464
237.767
247.047
256.229
265.23
273.955
282.279
290.025
297
303.045
308.025
311.846
314.432
315.705
315.611
314.119
311.221
306.95
301.35
294.448
286.291
276.936
266.472
255.064
242.896
230.125
216.91
203.388
189.695
175.995
162.417
149.056
135.989
123.263
110.924
99.049
87.703
76.946
66.834
57.354
48.483
40.213
32.51
25.339
18.648
12.347
6.37
0.691
-4.711
-9.834
-14.681
-19.286
-23.676
-27.878
-31.935
-35.857
-39.652
-43.341
-46.916
-50.36
-53.643
-56.704
-59.497
-62.009
-64.231
-66.168
-67.833
-69.223
-70.342
-71.204
-71.808
-72.158
-72.262
-72.12
-71.749
-71.173
-70.425
-69.552
-68.597
-67.587
-66.55
-65.504
-64.463
-63.442
-62.45
-61.49
-60.568
-59.693
-58.872
-58.115
-57.427
-56.811
-56.264
-55.783
-55.363
-54.998
-54.686
-54.421
-54.201
-54.024
-53.888
-53.794
-53.741
-53.728
-53.753
-53.811
-53.899
-54.012
-54.148
-54.299
-54.464
-54.637
-54.816
-54.998
-55.182
-55.363
-55.541
-55.713
-55.879
-56.035
-56.182
-56.318
-56.441
-56.553
-56.653
-56.742
-56.819
-56.886
-56.943
-56.992
-57.032
-57.065
-57.092
-57.112
-57.126
-57.134
-57.138
-57.139
-57.136
-57.131
-57.126
-57.121
-57.117
-57.115
-57.116
-57.12
-57.128
-57.139
-57.155
-57.174
-57.198
-57.226
-57.258
-57.294
-57.334
-57.378
-57.425
-57.475
-57.527
-57.581
-57.637
-57.694
-57.753
-57.812
-57.872
-57.933
-57.994
-58.055
-58.117
-58.179
-58.239
-58.298
-58.356
-58.41
-58.462
-58.509
-58.551
-58.588
-58.619
-58.642
-58.657
-58.664
-58.662
-58.649
-58.626
-58.592
-58.547
-58.489
-58.419
-58.336
-58.241
-58.132
-58.01
-57.874
-57.725
-57.561
-57.383
-57.191
-56.985
-56.763
-56.528
-56.279
-56.016
-55.742
-55.456
-55.16
-54.857
-54.546
-54.231
-53.913
-53.594
-53.277
-52.964
-52.657
-52.358
-52.071
-51.796
-51.536
-51.294
-51.071
-50.869
-50.69
-50.536
-50.408
-50.307
-50.235
-50.193
-50.183
-50.204
-50.259
-50.348
-50.471
-50.629
-50.822
-51.049
-51.31
-51.603
-51.926
-52.277
-52.654
-53.054
-53.472
-53.906
-54.351
-54.803
-55.257
-55.708
-56.152
-56.582
-56.994
-57.383
-57.741
-58.065
-58.349
-58.586
-58.772
-58.901
-58.967
-58.966
-58.892
-58.74
-58.504
-58.181
-57.765
-57.251
-56.636
-55.916
-55.088
-54.149
-53.097
-51.932
-50.655
-49.264
-47.763
-46.152
-44.435
-42.615
-40.695
-38.683
-36.582
-34.4
-32.145
-29.826
-27.452
-25.034
-22.584
-20.113
-17.634
-15.163
-12.713
-10.3
-7.943
-5.657
-3.461
-1.372
0.595
2.423
4.098
5.606
6.932
8.065
8.994
9.706
10.193
10.446
10.462
10.243
9.793
9.118
8.222
7.104
5.762
4.2
2.42
0.426
-1.774
-4.172
-6.749
-9.465
-12.288
-15.182
-18.125
-21.113
-24.136
-27.173
-30.195
-33.151
-35.987
-38.665
-41.126
-43.295
-45.159
-46.75
-48.175
-49.638
-51.294
-53.243
-55.625
-58.52
-61.867
-65.472
-68.962
-71.893
-74
-75.114
-75.004
-73.519
-70.714
-66.948
-62.888
-59.158
-56.126
-54.061
-53.338
-54.433
-57.676
-62.952
-69.732
-77.561
-86.029
-94.564
-102.478
-108.632
-111.425
-109.558
-101.384
-84.274
-56.853
-18.706
29.704
84.905
144.927
210.304
281.168
360.186
447.648
538.548
626.842
701.757
751.781
769.005
746.592
684.44
587.449
462.602
321.848
177.273
41.143
-72.725
-155.065
-201.709
-213.62
-200.592
-175.27
-148.649
-130.783
-123.964
-124.827
-128.793
-128.502
-120.765
-107.189
-90.875
-77.122
-68.682
-65.069
-64.934
-66.151
-67.757
-69.75
-71.781
-73.409
-73.988
-73.05
-70.69
-67.146
-62.578
-57.239
-51.51
-45.902
-41.073
-37.427
-35.028
-33.816
-33.648
-34.35
-35.762
-37.659
-39.742
-41.822
-43.822
-45.69
-47.43
-49.013
-50.34
-51.345
-51.98
-52.171
-51.874
-51.059
-49.69
-47.77
-45.322
-42.359
-38.901
-34.964
-30.541
-25.637
-20.266
-14.456
-8.268
-1.759
5.014
11.991
19.117
26.342
33.621
40.926
48.252
55.599
62.966
70.345
77.715
85.049
92.342
99.606
106.866
114.143
121.468
128.877
136.425
144.195
152.241
160.593
169.253
178.194
187.393
196.83
206.475
216.298
226.25
236.249
246.216
256.073
265.711
275.008
283.813
291.919
299.163
305.42
310.58
314.575
317.342
318.814
318.958
317.75
315.173
311.234
305.951
299.337
291.452
282.377
272.21
261.12
249.249
236.707
223.624
210.104
196.246
182.163
167.951
153.701
139.529
125.556
111.883
98.62
85.844
73.617
62.011
51.047
40.743
31.127
22.199
13.959
6.412
-0.45
-6.656
-12.232
-17.243
-21.783
-25.916
-29.711
-33.227
-36.511
-39.637
-42.656
-45.598
-48.49
-51.343
-54.163
-56.965
-59.756
-62.518
-65.232
-67.854
-70.322
-72.601
-74.664
-76.485
-78.047
-79.324
-80.297
-80.967
-81.345
-81.446
-81.285
-80.875
-80.227
-79.371
-78.342
-77.178
-75.925
-74.614
-73.272
-71.923
-70.589
-69.288
-68.037
-66.843
-65.706
-64.631
-63.621
-62.68
-61.815
-61.025
-60.307
-59.658
-59.073
-58.551
-58.09
-57.686
-57.337
-57.043
-56.802
-56.615
-56.482
-56.401
-56.37
-56.385
-56.442
-56.535
-56.662
-56.815
-56.99
-57.183
-57.388
-57.601
-57.82
-58.039
-58.256
-58.466
-58.666
-58.854
-59.027
-59.181
-59.316
-59.429
-59.519
-59.586
-59.627
-59.644
-59.635
-59.6
-59.538
-59.451
-59.337
-59.199
-59.036
-58.85
-58.642
-58.414
-58.169
-57.908
-57.634
-57.349
-57.055
-56.755
-56.451
-56.146
-55.84
-55.538
-55.24
-54.949
-54.667
-54.395
-54.136
-53.89
-53.659
-53.444
-53.245
-53.064
-52.902
-52.758
-52.633
-52.527
-52.44
-52.373
-52.325
-52.295
-52.283
-52.287
-52.308
-52.343
-52.392
-52.453
-52.525
-52.606
-52.696
-52.794
-52.897
-53.005
-53.117
-53.232
-53.347
-53.463
-53.579
-53.695
-53.809
-53.921
-54.032
-54.142
-54.251
-54.36
-54.468
-54.576
-54.686
-54.797
-54.91
-55.026
-55.146
-55.271
-55.403
-55.543
-55.692
-55.851
-56.021
-56.204
-56.401
-56.612
-56.838
-57.08
-57.339
-57.615
-57.908
-58.219
-58.547
-58.892
-59.253
-59.629
-60.018
-60.418
-60.827
-61.241
-61.659
-62.077
-62.491
-62.899
-63.296
-63.679
-64.044
-64.387
-64.703
-64.988
-65.236
-65.444
-65.605
-65.715
-65.77
-65.765
-65.695
-65.556
-65.344
-65.054
-64.683
-64.225
-63.679
-63.039
-62.304
-61.47
-60.537
-59.503
-58.369
-57.134
-55.801
-54.371
-52.846
-51.229
-49.526
-47.738
-45.872
-43.933
-41.929
-39.867
-37.756
-35.605
-33.426
-31.229
-29.029
-26.837
-24.669
-22.54
-20.466
-18.465
-16.552
-14.742
-13.047
-11.483
-10.062
-8.798
-7.701
-6.782
-6.052
-5.52
-5.197
-5.091
-5.201
-5.522
-6.046
-6.765
-7.679
-8.791
-10.105
-11.618
-13.327
-15.232
-17.331
-19.616
-22.066
-24.634
-27.275
-29.95
-32.635
-35.33
-38.023
-40.688
-43.281
-45.739
-48
-50.029
-51.781
-53.175
-54.194
-54.88
-55.347
-55.832
-56.55
-57.632
-59.169
-61.229
-63.705
-66.379
-69.003
-71.168
-72.537
-72.921
-72.17
-70.241
-67.417
-64.167
-60.879
-58.072
-56.156
-55.391
-56.171
-58.859
-63.471
-69.728
-77.386
-86.125
-95.505
-104.933
-113.475
-119.025
-119.357
-113.435
-99.535
-77.258
-46.646
-4.488
51.083
120.879
204.513
295.975
388.78
478.422
561.845
638.936
708.31
764.179
798.137
800.348
762.987
684.317
566.511
418.068
254.603
93.356
-45.689
-147.895
-210.954
-239.824
-246.088
-240.453
-226.735
-206.167
-180.009
-152.824
-131.316
-119.811
-118.389
-121.446
-121.989
-116.937
-105.62
-90.664
-77.339
-67.51
-62.105
-61.741
-63.405
-65.334
-66.796
-66.191
-64.107
-61.401
-57.91
-53.975
-49.871
-45.677
-41.979
-39.479
-38.378
-38.653
-40.224
-42.821
-46.152
-49.999
-54.019
-57.795
-61.101
-63.803
-65.809
-67.112
-67.69
-67.5
-66.55
-64.879
-62.514
-59.499
-55.882
-51.704
-47.037
-41.957
-36.534
-30.856
-24.984
-18.956
-12.805
-6.549
-0.192
6.255
12.782
19.394
26.089
32.865
39.721
46.647
53.63
60.666
67.754
74.908
82.142
89.451
96.822
104.232
111.646
119.045
126.426
133.779
141.103
148.415
155.743
163.142
170.695
178.455
186.448
194.683
203.144
211.821
220.712
229.806
239.089
248.529
258.063
267.623
277.13
286.463
295.47
303.961
311.695
318.473
324.145
328.579
331.675
333.337
333.466
331.975
328.812
323.938
317.333
309.014
299.012
287.418
274.382
260.095
244.813
228.77
212.156
195.159
177.959
160.734
143.678
126.987
110.817
95.325
80.671
66.976
54.346
42.837
32.45
23.149
14.857
7.492
0.989
-4.716
-9.702
-14.055
-17.874
-21.286
-24.382
-27.258
-30.024
-32.761
-35.541
-38.417
-41.404
-44.494
-47.672
-50.91
-54.18
-57.466
-60.733
-63.942
-67.049
-69.986
-72.71
-75.185
-77.367
-79.231
-80.76
-81.939
-82.776
-83.292
-83.506
-83.441
-83.126
-82.58
-81.832
-80.914
-79.86
-78.712
-77.503
-76.26
-75.007
-73.763
-72.542
-71.36
-70.221
-69.125
-68.072
-67.064
-66.101
-65.186
-64.319
-63.498
-62.72
-61.983
-61.284
-60.62
-59.993
-59.4
-58.841
-58.316
-57.826
-57.374
-56.96
-56.584
-56.246
-55.943
-55.673
-55.437
-55.23
-55.051
-54.898
-54.768
-54.66
-54.573
-54.506
-54.457
-54.426
-54.41
-54.409
-54.421
-54.447
-54.485
-54.534
-54.595
-54.666
-54.747
-54.837
-54.936
-55.043
-55.157
-55.277
-55.402
-55.532
-55.666
-55.802
-55.942
-56.083
-56.226
-56.37
-56.516
-56.662
-56.81
-56.959
-57.109
-57.261
-57.414
-57.57
-57.727
-57.886
-58.047
-58.212
-58.379
-58.548
-58.721
-58.897
-59.077
-59.26
-59.447
-59.638
-59.833
-60.033
-60.237
-60.445
-60.658
-60.874
-61.095
-61.319
-61.546
-61.775
-62.005
-62.234
-62.462
-62.686
-62.906
-63.118
-63.321
-63.512
-63.687
-63.845
-63.981
-64.093
-64.177
-64.228
-64.244
-64.221
-64.154
-64.042
-63.879
-63.662
-63.388
-63.053
-62.653
-62.185
-61.646
-61.032
-60.341
-59.571
-58.72
-57.787
-56.771
-55.672
-54.489
-53.224
-51.878
-50.451
-48.947
-47.37
-45.723
-44.012
-42.242
-40.422
-38.559
-36.663
-34.746
-32.818
-30.888
-28.971
-27.078
-25.224
-23.423
-21.688
-20.031
-18.465
-17.004
-15.661
-14.45
-13.383
-12.469
-11.718
-11.138
-10.741
-10.535
-10.525
-10.71
-11.087
-11.657
-12.424
-13.397
-14.576
-15.957
-17.535
-19.3
-21.242
-23.349
-25.592
-27.939
-30.354
-32.795
-35.236
-37.66
-40.052
-42.401
-44.675
-46.822
-48.801
-50.566
-52.086
-53.38
-54.444
-55.27
-55.929
-56.506
-57.168
-58.185
-59.699
-61.713
-64.235
-67.222
-70.616
-74.453
-78.518
-82.289
-85.439
-87.756
-89.127
-89.69
-89.433
-88.099
-85.82
-83.179
-80.746
-79.197
-78.993
-80.266
-83.278
-88.345
-95.485
-103.445
-110.513
-115.598
-116.915
-114.202
-107.29
-92.148
-65.869
-25.358
32.434
103.455
182.563
264.954
344.139
418.813
489.35
553.154
608.028
648.577
666.807
659.423
623.734
558.218
465.282
344.843
201.65
48.754
-98.609
-220.574
-302.195
-342.134
-345.547
-323.71
-290.159
-251.265
-212.325
-179.193
-152.733
-134.295
-122.39
-110.371
-95.87
-78.838
-60.804
-46.901
-39.125
-36.576
-38.246
-41.861
-45.908
-50.155
-54.029
-56.928
-58.761
-59.562
-59.408
-58.626
-57.524
-56.314
-55.448
-55.425
-56.356
-58.145
-60.601
-63.438
-66.467
-69.538
-72.376
-74.648
-76.114
-76.661
-76.291
-75.075
-73.065
-70.302
-66.858
-62.861
-58.47
-53.814
-48.992
-44.049
-38.999
-33.89
-28.778
-23.735
-18.847
-14.152
-9.65
-5.349
-1.241
2.697
6.491
10.209
13.952
17.785
21.761
25.915
30.257
34.833
39.703
44.927
50.584
56.708
63.31
70.414
78.031
86.152
94.769
103.839
113.304
123.159
133.398
144.008
154.981
166.252
177.744
189.376
201.053
212.7
224.241
235.567
246.578
257.19
267.308
276.86
285.756
293.831
300.936
306.94
311.726
315.24
317.435
318.261
317.684
315.671
312.217
307.361
301.145
293.601
284.778
274.718
263.514
251.34
238.365
224.748
210.637
196.139
181.375
166.485
151.612
136.896
122.451
108.351
94.679
81.521
68.965
57.109
45.996
35.607
25.924
16.922
8.585
0.913
-6.123
-12.581
-18.529
-24.05
-29.199
-34.004
-38.507
-42.754
-46.796
-50.709
-54.526
-58.249
-61.88
-65.417
-68.859
-72.221
-75.485
-78.613
-81.562
-84.275
-86.72
-88.886
-90.758
-92.322
-93.563
-94.459
-95.005
-95.219
-95.114
-94.707
-94.012
-93.041
-91.82
-90.391
-88.796
-87.083
-85.29
-83.441
-81.563
-79.679
-77.812
-75.982
-74.202
-72.476
-70.812
-69.22
-67.707
-66.284
-64.954
-63.716
-62.569
-61.512
-60.541
-59.658
-58.862
-58.15
-57.521
-56.977
-56.517
-56.143
-55.854
-55.647
-55.519
-55.466
-55.482
-55.563
-55.704
-55.897
-56.139
-56.422
-56.743
-57.096
-57.477
-57.881
-58.303
-58.739
-59.184
-59.636
-60.091
-60.545
-60.996
-61.441
-61.879
-62.307
-62.723
-63.128
-63.518
-63.892
-64.251
-64.592
-64.914
-65.218
-65.502
-65.767
-66.012
-66.237
-66.441
-66.626
-66.79
-66.934
-67.057
-67.16
-67.242
-67.303
-67.341
-67.357
-67.348
-67.315
-67.254
-67.166
-67.047
-66.896
-66.71
-66.488
-66.226
-65.923
-65.577
-65.185
-64.744
-64.253
-63.711
-63.114
-62.461
-61.75
-60.981
-60.152
-59.263
-58.314
-57.306
-56.239
-55.115
-53.936
-52.705
-51.424
-50.097
-48.728
-47.321
-45.881
-44.415
-42.928
-41.429
-39.925
-38.427
-36.945
-35.49
-34.074
-32.707
-31.402
-30.17
-29.022
-27.966
-27.013
-26.171
-25.449
-24.859
-24.409
-24.108
-23.962
-23.978
-24.16
-24.514
-25.042
-25.739
-26.6
-27.625
-28.814
-30.174
-31.711
-33.42
-35.298
-37.335
-39.521
-41.842
-44.276
-46.786
-49.335
-51.887
-54.41
-56.884
-59.285
-61.576
-63.715
-65.65
-67.338
-68.754
-69.88
-70.696
-71.197
-71.396
-71.326
-71.053
-70.649
-70.183
-69.725
-69.348
-69.137
-69.177
-69.575
-70.469
-71.94
-73.998
-76.572
-79.465
-82.448
-85.303
-87.713
-89.286
-89.75
-88.944
-86.963
-84.307
-81.477
-78.94
-77.243
-76.785
-77.794
-80.367
-84.03
-87.542
-89.499
-88.197
-81.791
-68.865
-47.912
-17.449
23.14
73.736
132.981
197.624
264.18
329.303
390.552
447.362
498.618
541.895
572.24
582.985
567.861
521.773
443.851
335.433
202.275
57.431
-83.232
-200.461
-279.22
-316.766
-319.153
-299.81
-271.213
-238.043
-200.646
-157.513
-111.851
-72.487
-47.927
-43.746
-56.708
-76.166
-91.467
-94.77
-85.503
-70.303
-57.088
-51.256
-53.842
-61.351
-68.746
-73.09
-73.776
-71.705
-68.537
-65.168
-61.734
-58.45
-55.609
-53.397
-51.937
-51.177
-50.886
-50.877
-51.036
-51.169
-51.026
-50.467
-49.424
-47.903
-45.996
-43.759
-41.207
-38.376
-35.308
-32.036
-28.599
-25.027
-21.333
-17.54
-13.666
-9.718
-5.704
-1.625
2.53
6.778
11.146
15.666
20.361
25.241
30.315
35.585
41.052
46.717
52.566
58.578
64.734
71.015
77.413
83.925
90.54
97.238
103.996
110.776
117.558
124.338
131.114
137.886
144.667
151.477
158.361
165.391
172.619
180.074
187.765
195.668
203.759
212.019
220.422
228.948
237.552
246.157
254.688
263.072
271.213
279.005
286.301
292.893
298.606
303.297
306.853
309.208
310.3
310.065
308.451
305.425
300.987
295.174
288.024
279.566
269.852
258.942
246.956
234.094
220.542
206.465
192.008
177.293
162.446
147.619
132.961
118.588
104.59
91.031
77.975
65.514
53.733
42.721
32.513
23.076
14.379
6.393
-0.9
-7.522
-13.517
-18.966
-23.962
-28.562
-32.802
-36.703
-40.293
-43.624
-46.758
-49.765
-52.679
-55.507
-58.253
-60.924
-63.532
-66.078
-68.539
-70.867
-73.003
-74.916
-76.597
-78.046
-79.264
-80.243
-80.967
-81.427
-81.631
-81.59
-81.317
-80.823
-80.115
-79.21
-78.14
-76.949
-75.685
-74.381
-73.061
-71.743
-70.443
-69.177
-67.959
-66.798
-65.693
-64.647
-63.662
-62.745
-61.9
-61.129
-60.428
-59.791
-59.213
-58.687
-58.21
-57.78
-57.393
-57.047
-56.74
-56.474
-56.251
-56.072
-55.937
-55.845
-55.793
-55.78
-55.805
-55.866
-55.961
-56.088
-56.245
-56.431
-56.647
-56.892
-57.165
-57.466
-57.795
-58.151
-58.534
-58.944
-59.381
-59.842
-60.329
-60.839
-61.371
-61.924
-62.495
-63.081
-63.68
-64.287
-64.9
-65.512
-66.119
-66.716
-67.297
-67.857
-68.388
-68.886
-69.344
-69.756
-70.115
-70.416
-70.653
-70.82
-70.91
-70.918
-70.839
-70.667
-70.397
-70.025
-69.547
-68.958
-68.256
-67.439
-66.507
-65.459
-64.295
-63.018
-61.629
-60.133
-58.535
-56.839
-55.053
-53.183
-51.238
-49.228
-47.164
-45.057
-42.919
-40.764
-38.606
-36.461
-34.344
-32.271
-30.26
-28.327
-26.488
-24.759
-23.153
-21.684
-20.365
-19.209
-18.228
-17.434
-16.836
-16.444
-16.269
-16.318
-16.596
-17.101
-17.827
-18.769
-19.923
-21.289
-22.871
-24.668
-26.673
-28.882
-31.283
-33.865
-36.612
-39.492
-42.46
-45.467
-48.476
-51.462
-54.416
-57.323
-60.147
-62.828
-65.305
-67.534
-69.486
-71.156
-72.512
-73.492
-74.122
-74.527
-74.849
-75.266
-75.846
-76.488
-77.189
-78.088
-79.159
-80.31
-81.46
-82.329
-82.906
-83.526
-84.189
-84.706
-85.075
-85.211
-85.059
-84.916
-84.662
-83.855
-82.689
-81.505
-80.483
-79.892
-79.775
-79.908
-80.46
-81.599
-81.96
-79.244
-71.555
-57.764
-39.227
-18.565
4.082
31.712
69.688
122.531
190.293
267.422
345.506
418.606
483.087
537.164
578.954
602.003
598.318
562.136
491.19
388.145
262.193
126.669
-3.412
-110.4
-182.886
-220.015
-227.661
-219.552
-208.501
-198.826
-190.474
-180.011
-163.894
-143.194
-120.977
-99.993
-82.697
-70.031
-61.66
-57.089
-55.58
-56.183
-58.203
-61.352
-65.217
-69.194
-72.753
-75.307
-76.626
-76.954
-76.526
-75.454
-73.917
-72.132
-70.407
-69.203
-68.719
-68.865
-69.481
-70.348
-71.29
-72.214
-72.964
-73.321
-73.16
-72.442
-71.189
-69.494
-67.415
-64.967
-62.18
-59.091
-55.744
-52.186
-48.457
-44.583
-40.583
-36.465
-32.238
-27.909
-23.474
-18.923
-14.235
-9.375
-4.328
0.912
6.344
11.963
17.76
23.734
29.869
36.141
42.531
49.019
55.59
62.24
68.949
75.695
82.457
89.207
95.929
102.625
109.298
115.954
122.622
129.324
136.101
143.013
150.088
157.341
164.777
172.37
180.108
187.973
195.924
203.917
211.9
219.795
227.529
235.025
242.157
248.8
254.813
260.027
264.318
267.582
269.723
270.678
270.392
268.817
265.952
261.82
256.435
249.839
242.072
233.165
223.229
212.392
200.789
188.594
175.953
163.002
149.898
136.789
123.799
111.043
98.597
86.504
74.835
63.654
53.03
43.047
33.724
25.054
17.033
9.63
2.81
-3.461
-9.259
-14.679
-19.783
-24.618
-29.213
-33.563
-37.697
-41.651
-45.462
-49.179
-52.826
-56.404
-59.928
-63.403
-66.821
-70.164
-73.386
-76.414
-79.208
-81.745
-84.01
-86.011
-87.745
-89.199
-90.373
-91.263
-91.874
-92.214
-92.287
-92.096
-91.658
-90.995
-90.146
-89.162
-88.082
-86.932
-85.739
-84.518
-83.287
-82.063
-80.858
-79.675
-78.522
-77.408
-76.34
-75.332
-74.388
-73.51
-72.699
-71.95
-71.26
-70.627
-70.049
-69.526
-69.055
-68.635
-68.267
-67.954
-67.696
-67.491
-67.338
-67.233
-67.172
-67.152
-67.168
-67.216
-67.291
-67.389
-67.506
-67.639
-67.783
-67.936
-68.094
-68.255
-68.414
-68.569
-68.718
-68.859
-68.99
-69.111
-69.219
-69.315
-69.399
-69.471
-69.531
-69.58
-69.619
-69.649
-69.671
-69.684
-69.691
-69.693
-69.691
-69.686
-69.679
-69.672
-69.666
-69.663
-69.663
-69.667
-69.675
-69.688
-69.705
-69.726
-69.751
-69.778
-69.807
-69.837
-69.865
-69.89
-69.911
-69.923
-69.925
-69.913
-69.883
-69.831
-69.754
-69.646
-69.505
-69.324
-69.1
-68.828
-68.505
-68.124
-67.683
-67.177
-66.602
-65.955
-65.234
-64.435
-63.557
-62.6
-61.561
-60.441
-59.24
-57.96
-56.601
-55.166
-53.658
-52.08
-50.436
-48.732
-46.972
-45.163
-43.314
-41.434
-39.533
-37.623
-35.715
-33.823
-31.957
-30.133
-28.361
-26.654
-25.024
-23.481
-22.038
-20.709
-19.505
-18.439
-17.519
-16.755
-16.156
-15.729
-15.479
-15.407
-15.511
-15.795
-16.262
-16.923
-17.785
-18.851
-20.119
-21.586
-23.242
-25.078
-27.073
-29.196
-31.414
-33.694
-36.006
-38.328
-40.635
-42.892
-45.056
-47.076
-48.902
-50.498
-51.838
-52.9
-53.677
-54.173
-54.416
-54.46
-54.371
-54.221
-54.077
-54.008
-54.089
-54.393
-55.029
-56.132
-57.781
-59.997
-62.717
-65.759
-68.918
-71.993
-74.67
-76.579
-77.464
-77.168
-75.785
-73.744
-71.49
-69.454
-68.177
-68.07
-69.236
-71.732
-75.228
-78.626
-80.722
-79.538
-72.226
-57.329
-34.155
-3.031
33.762
76.171
125.6
183.175
250.77
326.591
405.667
482.127
548.914
599.935
630.14
636.617
617.216
570.79
498.742
401.29
282.999
154.714
29.69
-74.419
-144.885
-179.934
-184.774
-170.855
-148.805
-123.704
-98.556
-75.76
-57.793
-47.308
-44.311
-45.265
-46.543
-46.075
-44.03
-43.121
-45.038
-49.372
-54.859
-59.344
-61.468
-61.305
-59.164
-55.465
-50.744
-45.393
-39.885
-34.921
-30.97
-28.156
-26.499
-25.875
-26.08
-26.983
-28.362
-29.876
-31.283
-32.44
-33.292
-33.898
-34.287
-34.417
-34.242
-33.738
-32.898
-31.746
-30.295
-28.533
-26.453
-24.059
-21.38
-18.464
-15.343
-12.028
-8.493
-4.697
-0.619
3.728
8.313
13.116
18.135
23.374
28.828
34.477
40.297
46.273
52.4
58.667
65.057
71.544
78.09
84.664
91.244
97.812
104.362
110.883
117.365
123.811
130.23
136.639
143.068
149.55
156.123
162.844
169.755
176.872
184.209
191.751
199.48
207.383
215.43
223.57
231.747
239.887
247.906
255.727
263.242
270.301
276.752
282.418
287.142
290.819
293.348
294.65
294.671
293.365
290.708
286.728
281.455
274.921
267.176
258.259
248.243
237.274
225.508
213.115
200.274
187.128
173.826
160.534
147.378
134.466
121.886
109.679
97.891
86.59
75.832
65.683
56.203
47.382
39.206
31.656
24.684
18.25
12.296
6.724
1.468
-3.509
-8.236
-12.71
-16.934
-20.939
-24.75
-28.397
-31.926
-35.348
-38.672
-41.917
-45.073
-48.123
-51.037
-53.752
-56.219
-58.424
-60.355
-62.018
-63.424
-64.569
-65.459
-66.104
-66.502
-66.657
-66.576
-66.26
-65.721
-64.987
-64.088
-63.069
-61.975
-60.834
-59.669
-58.503
-57.347
-56.217
-55.123
-54.067
-53.055
-52.098
-51.201
-50.375
-49.627
-48.957
-48.364
-47.846
-47.396
-47.011
-46.688
-46.423
-46.212
-46.055
-45.95
-45.897
-45.897
-45.948
-46.046
-46.187
-46.368
-46.584
-46.831
-47.101
-47.392
-47.697
-48.013
-48.336
-48.661
-48.986
-49.307
-49.621
-49.925
-50.216
-50.492
-50.751
-50.99
-51.21
-51.408
-51.584
-51.737
-51.869
-51.978
-52.064
-52.13
-52.174
-52.197
-52.2
-52.183
-52.148
-52.095
-52.026
-51.942
-51.844
-51.736
-51.618
-51.493
-51.362
-51.228
-51.092
-50.957
-50.822
-50.692
-50.565
-50.445
-50.333
-50.229
-50.136
-50.053
-49.983
-49.926
-49.882
-49.853
-49.839
-49.84
-49.857
-49.891
-49.941
-50.008
-50.092
-50.192
-50.309
-50.442
-50.591
-50.754
-50.932
-51.124
-51.328
-51.544
-51.769
-52.004
-52.246
-52.495
-52.748
-53.005
-53.263
-53.521
-53.778
-54.032
-54.282
-54.526
-54.762
-54.989
-55.206
-55.412
-55.604
-55.783
-55.945
-56.092
-56.22
-56.33
-56.42
-56.491
-56.54
-56.569
-56.576
-56.561
-56.525
-56.468
-56.39
-56.292
-56.175
-56.039
-55.886
-55.717
-55.534
-55.338
-55.132
-54.917
-54.696
-54.47
-54.241
-54.013
-53.786
-53.564
-53.348
-53.141
-52.946
-52.764
-52.597
-52.447
-52.317
-52.208
-52.122
-52.06
-52.025
-52.016
-52.035
-52.084
-52.163
-52.272
-52.412
-52.582
-52.782
-53.013
-53.271
-53.557
-53.868
-54.202
-54.558
-54.932
-55.321
-55.723
-56.133
-56.548
-56.964
-57.377
-57.781
-58.174
-58.549
-58.904
-59.232
-59.53
-59.793
-60.017
-60.196
-60.327
-60.404
-60.424
-60.38
-60.27
-60.087
-59.829
-59.492
-59.072
-58.567
-57.973
-57.288
-56.51
-55.638
-54.671
-53.609
-52.452
-51.2
-49.856
-48.423
-46.903
-45.3
-43.62
-41.865
-40.043
-38.16
-36.22
-34.232
-32.203
-30.141
-28.054
-25.953
-23.846
-21.747
-19.667
-17.62
-15.619
-13.677
-11.811
-10.034
-8.363
-6.811
-5.39
-4.112
-2.988
-2.03
-1.25
-0.658
-0.26
-0.063
-0.072
-0.296
-0.741
-1.408
-2.291
-3.379
-4.666
-6.151
-7.841
-9.74
-11.841
-14.136
-16.617
-19.274
-22.098
-25.067
-28.137
-31.259
-34.382
-37.464
-40.49
-43.447
-46.31
-49.037
-51.557
-53.799
-55.724
-57.311
-58.552
-59.429
-59.911
-60.027
-59.909
-59.775
-59.849
-60.255
-60.975
-61.95
-63.222
-64.844
-66.809
-68.901
-70.734
-72.042
-72.8
-73.163
-73.187
-72.755
-71.678
-70.022
-68.169
-66.592
-65.675
-65.413
-65.85
-67.276
-69.952
-74.095
-79.075
-82.905
-83.563
-79.469
-70.26
-57.974
-43.803
-26.324
-1.922
36.307
94.032
171.182
264.283
366.194
467.519
562.622
645.722
709.141
747.858
754.738
724.425
658.592
559.352
434.265
296.914
160.172
40.324
-49.639
-106.9
-133.761
-138.659
-131.984
-118.969
-103.336
-88.897
-77.963
-72.954
-73.86
-76.292
-76.253
-72.122
-64.987
-58.627
-55.534
-55.771
-58.159
-60.833
-62.937
-64.396
-64.902
-64.406
-62.946
-60.56
-57.6
-54.37
-50.965
-47.66
-44.934
-43.076
-42.212
-42.326
-43.213
-44.673
-46.563
-48.632
-50.544
-52.065
-53.059
-53.462
-53.306
-52.606
-51.358
-49.596
-47.38
-44.759
-41.775
-38.456
-34.814
-30.882
-26.714
-22.366
-17.898
-13.346
-8.728
-4.053
0.676
5.462
10.316
15.258
20.313
25.506
30.849
36.349
42.006
47.822
53.798
59.929
66.207
72.612
79.125
85.725
92.394
99.12
105.888
112.681
119.477
126.25
132.99
139.698
146.38
153.049
159.718
166.402
173.128
179.937
186.856
193.898
201.059
208.314
215.635
222.989
230.339
237.644
244.841
251.851
258.588
264.964
270.89
276.274
281.002
284.938
287.968
289.999
290.963
290.818
289.521
287.042
283.371
278.522
272.536
265.464
257.364
248.291
238.308
227.496
215.972
203.881
191.355
178.519
165.496
152.4
139.37
126.533
113.984
101.793
90.013
78.697
67.912
57.735
48.226
39.421
31.326
23.927
17.213
11.16
5.731
0.863
-3.537
-7.546
-11.214
-14.57
-17.636
-20.446
-23.053
-25.518
-27.885
-30.185
-32.436
-34.65
-36.845
-39.024
-41.169
-43.239
-45.171
-46.923
-48.476
-49.825
-50.969
-51.904
-52.618
-53.099
-53.354
-53.392
-53.223
-52.855
-52.294
-51.555
-50.667
-49.67
-48.612
-47.529
-46.446
-45.38
-44.347
-43.361
-42.437
-41.58
-40.789
-40.065
-39.41
-38.825
-38.317
-37.884
-37.522
-37.224
-36.981
-36.787
-36.637
-36.526
-36.448
-36.4
-36.378
-36.381
-36.409
-36.46
-36.531
-36.618
-36.717
-36.824
-36.935
-37.045
-37.151
-37.249
-37.335
-37.408
-37.466
-37.507
-37.531
-37.535
-37.521
-37.487
-37.435
-37.364
-37.276
-37.172
-37.053
-36.92
-36.775
-36.621
-36.457
-36.286
-36.11
-35.929
-35.745
-35.559
-35.372
-35.186
-35.001
-34.819
-34.641
-34.468
-34.301
-34.141
-33.99
-33.85
-33.72
-33.601
-33.494
-33.4
-33.319
-33.252
-33.199
-33.159
-33.134
-33.123
-33.127
-33.145
-33.177
-33.225
-33.286
-33.363
-33.454
-33.559
-33.68
-33.817
-33.969
-34.137
-34.321
-34.523
-34.741
-34.978
-35.232
-35.505
-35.797
-36.109
-36.44
-36.791
-37.162
-37.553
-37.963
-38.393
-38.843
-39.31
-39.795
-40.297
-40.814
-41.347
-41.892
-42.45
-43.019
-43.598
-44.186
-44.78
-45.381
-45.986
-46.594
-47.204
-47.814
-48.424
-49.032
-49.636
-50.236
-50.831
-51.418
-51.996
-52.565
-53.123
-53.669
-54.202
-54.72
-55.223
-55.71
-56.181
-56.635
-57.072
-57.492
-57.895
-58.282
-58.653
-59.007
-59.347
-59.672
-59.983
-60.28
-60.564
-60.835
-61.093
-61.339
-61.573
-61.795
-62.004
-62.202
-62.388
-62.561
-62.722
-62.87
-63.005
-63.128
-63.238
-63.335
-63.42
-63.493
-63.554
-63.602
-63.639
-63.664
-63.676
-63.677
-63.666
-63.642
-63.605
-63.556
-63.493
-63.418
-63.329
-63.227
-63.113
-62.985
-62.844
-62.692
-62.527
-62.351
-62.165
-61.968
-61.763
-61.551
-61.331
-61.105
-60.875
-60.64
-60.403
-60.162
-59.92
-59.676
-59.431
-59.184
-58.937
-58.689
-58.441
-58.193
-57.945
-57.697
-57.449
-57.202
-56.956
-56.711
-56.466
-56.222
-55.979
-55.737
-55.497
-55.258
-55.021
-54.785
-54.551
-54.32
-54.09
-53.862
-53.636
-53.411
-53.189
-52.969
-52.752
-52.538
-52.328
-52.123
-51.923
-51.731
-51.546
-51.37
-51.205
-51.051
-50.909
-50.782
-50.67
-50.574
-50.497
-50.438
-50.401
-50.385
-50.391
-50.42
-50.473
-50.549
-50.65
-50.774
-50.923
-51.095
-51.291
-51.511
-51.754
-52.02
-52.308
-52.616
-52.944
-53.29
-53.653
-54.03
-54.42
-54.82
-55.228
-55.642
-56.059
-56.476
-56.891
-57.299
-57.698
-58.084
-58.452
-58.8
-59.123
-59.417
-59.68
-59.907
-60.096
-60.243
-60.345
-60.398
-60.401
-60.349
-60.239
-60.067
-59.831
-59.528
-59.154
-58.707
-58.186
-57.587
-56.908
-56.148
-55.305
-54.378
-53.366
-52.267
-51.082
-49.809
-48.45
-47.006
-45.48
-43.873
-42.188
-40.428
-38.598
-36.702
-34.743
-32.728
-30.66
-28.545
-26.391
-24.203
-21.991
-19.763
-17.53
-15.301
-13.091
-10.91
-8.773
-6.694
-4.688
-2.768
-0.946
0.765
2.354
3.809
5.118
6.27
7.255
8.063
8.685
9.11
9.331
9.34
9.141
8.738
8.134
7.33
6.323
5.102
3.662
2.004
0.13
-1.959
-4.257
-6.751
-9.413
-12.195
-15.046
-17.925
-20.805
-23.67
-26.502
-29.257
-31.863
-34.248
-36.36
-38.162
-39.645
-40.77
-41.464
-41.751
-41.749
-41.619
-41.568
-41.685
-41.897
-42.231
-42.838
-43.749
-44.951
-46.359
-47.693
-48.917
-50.263
-51.75
-53.237
-54.63
-55.742
-56.542
-57.305
-58.014
-58.502
-58.922
-59.512
-60.551
-62.322
-64.752
-67.544
-70.527
-73.277
-74.215
-70.958
-61.219
-43.478
-18.723
10.839
44.957
85.484
136.741
203.172
284.727
377.502
474.929
569.67
656.407
729
780.419
803.568
791.282
742.747
662.098
554.908
430.722
298.19
165.923
47.34
-46.212
-108.315
-136.619
-137.905
-123.744
-103.139
-84.829
-73.496
-67.895
-66.108
-63.861
-57.216
-46.362
-33.494
-22.517
-16.367
-15.253
-17.802
-21.816
-26.173
-30.652
-34.956
-38.844
-41.785
-43.385
-43.839
-43.459
-42.405
-40.876
-39.109
-37.436
-36.365
-36.168
-36.804
-38.139
-39.967
-42.076
-44.284
-46.364
-48.033
-49.118
-49.555
-49.319
-48.444
-46.96
-44.881
-42.253
-39.145
-35.604
-31.675
-27.402
-22.823
-18.009
-13.042
-7.981
-2.87
2.253
7.356
12.389
17.289
22.022
26.577
30.958
35.182
39.261
43.206
47.045
50.82
54.586
58.402
62.307
66.329
70.512
74.905
79.579
84.622
90.085
95.999
102.388
109.258
116.616
124.467
132.797
141.579
150.79
160.402
170.39
180.725
191.344
202.168
213.107
224.056
234.934
245.656
256.124
266.25
275.944
285.115
293.673
301.514
308.496
314.488
319.379
323.076
325.531
326.706
326.562
325.07
322.201
317.953
312.354
305.434
297.218
287.74
277.063
265.303
252.634
239.231
225.247
210.82
196.062
181.097
166.065
151.115
136.386
121.991
108.025
94.583
81.776
69.716
58.48
48.088
38.51
29.708
21.654
14.329
7.717
1.773
-3.568
-8.385
-12.761
-16.751
-20.409
-23.794
-26.976
-30.038
-33.044
-36.019
-38.963
-41.874
-44.748
-47.593
-50.409
-53.173
-55.85
-58.401
-60.777
-62.954
-64.913
-66.634
-68.098
-69.279
-70.162
-70.75
-71.061
-71.11
-70.915
-70.489
-69.849
-69.026
-68.058
-66.98
-65.834
-64.652
-63.455
-62.27
-61.115
-60.007
-58.962
-57.986
-57.08
-56.245
-55.486
-54.805
-54.205
-53.684
-53.236
-52.857
-52.541
-52.283
-52.079
-51.926
-51.817
-51.752
-51.727
-51.742
-51.795
-51.884
-52.007
-52.159
-52.335
-52.531
-52.743
-52.966
-53.194
-53.423
-53.649
-53.87
-54.082
-54.283
-54.471
-54.643
-54.798
-54.934
-55.05
-55.146
-55.222
-55.277
-55.312
-55.327
-55.323
-55.3
-55.259
-55.202
-55.127
-55.037
-54.93
-54.808
-54.672
-54.522
-54.359
-54.183
-53.997
-53.801
-53.597
-53.385
-53.167
-52.945
-52.718
-52.488
-52.255
-52.021
-51.785
-51.547
-51.309
-51.069
-50.828
-50.586
-50.343
-50.098
-49.852
-49.604
-49.353
-49.101
-48.848
-48.592
-48.336
-48.079
-47.822
-47.565
-47.308
-47.053
-46.8
-46.548
-46.299
-46.052
-45.808
-45.568
-45.331
-45.098
-44.869
-44.644
-44.423
-44.206
-43.995
-43.789
-43.588
-43.393
-43.204
-43.022
-42.847
-42.679
-42.518
-42.366
-42.22
-42.082
-41.951
-41.826
-41.708
-41.596
-41.489
-41.386
-41.288
-41.194
-41.104
-41.016
-40.932
-40.849
-40.769
-40.692
-40.616
-40.542
-40.47
-40.401
-40.334
-40.269
-40.206
-40.146
-40.089
-40.034
-39.981
-39.931
-39.884
-39.839
-39.797
-39.759
-39.724
-39.693
-39.667
-39.646
-39.63
-39.621
-39.618
-39.623
-39.634
-39.653
-39.68
-39.714
-39.756
-39.805
-39.862
-39.925
-39.995
-40.07
-40.15
-40.235
-40.323
-40.414
-40.507
-40.601
-40.696
-40.79
-40.882
-40.973
-41.06
-41.143
-41.221
-41.292
-41.356
-41.41
-41.455
-41.488
-41.508
-41.514
-41.505
-41.479
-41.437
-41.377
-41.299
-41.202
-41.086
-40.95
-40.795
-40.621
-40.428
-40.216
-39.986
-39.738
-39.475
-39.195
-38.902
-38.595
-38.277
-37.949
-37.613
-37.27
-36.922
-36.572
-36.222
-35.874
-35.532
-35.198
-34.875
-34.567
-34.275
-34.004
-33.757
-33.536
-33.345
-33.187
-33.063
-32.977
-32.932
-32.93
-32.973
-33.063
-33.201
-33.39
-33.631
-33.925
-34.272
-34.672
-35.126
-35.632
-36.191
-36.8
-37.457
-38.161
-38.909
-39.697
-40.522
-41.379
-42.264
-43.171
-44.096
-45.03
-45.969
-46.905
-47.831
-48.74
-49.624
-50.475
-51.286
-52.049
-52.756
-53.399
-53.971
-54.464
-54.869
-55.181
-55.391
-55.493
-55.481
-55.35
-55.095
-54.711
-54.196
-53.547
-52.763
-51.843
-50.787
-49.595
-48.271
-46.818
-45.239
-43.542
-41.732
-39.818
-37.811
-35.722
-33.563
-31.35
-29.095
-26.813
-24.52
-22.232
-19.966
-17.739
-15.568
-13.471
-11.464
-9.567
-7.799
-6.178
-4.72
-3.439
-2.346
-1.455
-0.774
-0.314
-0.083
-0.084
-0.323
-0.807
-1.542
-2.528
-3.766
-5.248
-6.96
-8.888
-11.01
-13.299
-15.728
-18.266
-20.883
-23.549
-26.228
-28.888
-31.496
-34.021
-36.435
-38.705
-40.786
-42.638
-44.248
-45.619
-46.794
-47.817
-48.684
-49.443
-50.215
-51.187
-52.576
-54.502
-56.914
-59.772
-63.167
-67.119
-71.481
-75.852
-79.6
-82.297
-83.929
-84.561
-84.036
-82.255
-79.289
-75.608
-72.222
-69.956
-68.973
-69.228
-70.848
-73.762
-77.74
-82.267
-85.957
-87.117
-84.643
-76.892
-61.306
-36.752
-2.603
40.899
90.306
144.163
203.766
269.639
344.618
429.132
517.147
602.185
675.09
725.156
747.03
736.245
690.293
612.109
503.949
370.868
223.263
72.312
-66.944
-178.849
-254.417
-290.349
-289.895
-264.264
-225.604
-184.91
-153.072
-133.238
-123.542
-120.115
-114.687
-103.535
-87.724
-69.599
-54.42
-44.863
-40.123
-38.785
-38.683
-38.56
-38.317
-37.904
-37.185
-35.846
-33.817
-31.346
-28.668
-26.085
-23.84
-22.06
-21.058
-21.217
-22.607
-25.091
-28.421
-32.22
-36.224
-40.278
-44.142
-47.55
-50.311
-52.276
-53.392
-53.703
-53.228
-51.981
-49.995
-47.305
-43.987
-40.147
-35.894
-31.344
-26.575
-21.632
-16.557
-11.383
-6.143
-0.867
4.445
9.82
15.273
20.811
26.437
32.143
37.941
43.857
49.91
56.114
62.471
68.971
75.612
82.401
89.333
96.395
103.56
110.781
118.036
125.323
132.641
139.997
147.404
154.881
162.472
170.252
178.272
186.567
195.149
203.993
213.081
222.396
231.915
241.618
251.459
261.357
271.236
281.014
290.582
299.821
308.564
316.591
323.721
329.803
334.714
338.38
340.732
341.703
341.248
339.331
335.932
331.077
324.788
317.089
308.043
297.717
286.238
273.807
260.592
246.751
232.436
217.759
202.837
187.805
172.78
157.882
143.243
128.956
115.117
101.833
89.181
77.252
66.092
55.681
46.014
37.075
28.843
21.312
14.469
8.266
2.655
-2.42
-7.05
-11.293
-15.206
-18.86
-22.314
-25.642
-28.903
-32.115
-35.291
-38.44
-41.561
-44.665
-47.757
-50.813
-53.804
-56.695
-59.43
-61.975
-64.308
-66.4
-68.23
-69.774
-71.01
-71.94
-72.577
-72.932
-73.021
-72.854
-72.443
-71.817
-71.008
-70.05
-68.984
-67.841
-66.641
-65.408
-64.162
-62.917
-61.688
-60.481
-59.294
-58.131
-56.994
-55.886
-54.812
-53.771
-52.761
-51.779
-50.822
-49.89
-48.981
-48.096
-47.234
-46.396
-45.585
-44.802
-44.052
-43.336
-42.656
-42.011
-41.401
-40.825
-40.283
-39.774
-39.296
-38.849
-38.433
-38.047
-37.692
-37.369
-37.078
-36.818
-36.592
-36.398
-36.238
-36.112
-36.02
-35.962
-35.939
-35.95
-35.994
-36.073
-36.183
-36.325
-36.498
-36.699
-36.928
-37.182
-37.461
-37.762
-38.083
-38.425
-38.784
-39.16
-39.551
-39.956
-40.372
-40.8
-41.235
-41.677
-42.123
-42.571
-43.018
-43.463
-43.902
-44.332
-44.753
-45.162
-45.556
-45.935
-46.296
-46.638
-46.961
-47.263
-47.543
-47.801
-48.037
-48.25
-48.441
-48.609
-48.754
-48.878
-48.98
-49.061
-49.12
-49.159
-49.178
-49.177
-49.157
-49.12
-49.065
-48.994
-48.909
-48.811
-48.701
-48.581
-48.453
-48.319
-48.181
-48.04
-47.897
-47.755
-47.616
-47.479
-47.348
-47.222
-47.104
-46.994
-46.893
-46.801
-46.72
-46.65
-46.592
-46.546
-46.513
-46.493
-46.488
-46.496
-46.52
-46.558
-46.613
-46.684
-46.77
-46.873
-46.992
-47.126
-47.275
-47.438
-47.615
-47.803
-48.002
-48.211
-48.429
-48.654
-48.885
-49.12
-49.359
-49.6
-49.842
-50.083
-50.322
-50.558
-50.79
-51.016
-51.236
-51.448
-51.652
-51.845
-52.026
-52.195
-52.35
-52.49
-52.613
-52.718
-52.804
-52.871
-52.918
-52.944
-52.95
-52.935
-52.899
-52.845
-52.771
-52.679
-52.57
-52.446
-52.308
-52.158
-51.997
-51.827
-51.651
-51.471
-51.288
-51.105
-50.923
-50.746
-50.575
-50.412
-50.259
-50.12
-49.996
-49.89
-49.805
-49.743
-49.707
-49.698
-49.719
-49.772
-49.859
-49.981
-50.138
-50.332
-50.564
-50.832
-51.138
-51.479
-51.855
-52.264
-52.704
-53.172
-53.665
-54.179
-54.712
-55.26
-55.818
-56.382
-56.948
-57.511
-58.067
-58.611
-59.137
-59.64
-60.114
-60.553
-60.95
-61.301
-61.599
-61.838
-62.012
-62.115
-62.142
-62.088
-61.948
-61.716
-61.389
-60.962
-60.433
-59.799
-59.06
-58.214
-57.261
-56.203
-55.04
-53.776
-52.412
-50.953
-49.402
-47.765
-46.046
-44.253
-42.394
-40.475
-38.507
-36.501
-34.467
-32.419
-30.369
-28.333
-26.326
-24.364
-22.464
-20.642
-18.912
-17.287
-15.783
-14.412
-13.186
-12.118
-11.216
-10.49
-9.951
-9.607
-9.466
-9.527
-9.786
-10.235
-10.868
-11.684
-12.688
-13.883
-15.268
-16.84
-18.598
-20.539
-22.658
-24.933
-27.322
-29.783
-32.278
-34.783
-37.296
-39.803
-42.279
-44.677
-46.939
-49.003
-50.836
-52.397
-53.614
-54.473
-55.008
-55.321
-55.627
-56.13
-56.958
-58.204
-59.935
-62.057
-64.394
-66.749
-68.761
-70.12
-70.624
-70.085
-68.458
-66.02
-63.163
-60.205
-57.631
-55.838
-55.159
-56.09
-58.96
-63.7
-70.093
-77.962
-86.792
-95.976
-104.896
-112.336
-116.802
-116.991
-110.761
-95.94
-71.806
-37.235
7.295
60.455
123.066
193.378
269.829
351.006
432.102
511.706
588.011
656.106
711.229
744.165
744.3
705.561
626.413
510.202
367.863
215.139
67.58
-57.29
-147.113
-200.817
-220.913
-215.239
-195.656
-168.016
-138.977
-117.084
-103.958
-100.359
-103.496
-104.167
-98.525
-86.805
-71.396
-58.526
-51.088
-48.369
-49.125
-51.359
-54.027
-57.064
-60.123
-62.634
-64.223
-64.827
-64.536
-63.446
-61.7
-59.489
-57.18
-55.362
-54.365
-54.213
-54.825
-55.998
-57.521
-59.231
-60.893
-62.205
-62.986
-63.161
-62.707
-61.692
-60.179
-58.206
-55.839
-53.14
-50.143
-46.878
-43.369
-39.643
-35.756
-31.761
-27.683
-23.551
-19.384
-15.199
-11.027
-6.851
-2.612
1.748
6.285
11.029
15.977
21.137
26.522
32.143
38.023
44.162
50.532
57.134
63.982
71.093
78.508
86.204
94.108
102.163
110.309
118.512
126.777
135.094
143.446
151.841
160.29
168.82
177.488
186.299
195.225
204.234
213.259
222.278
231.301
240.305
249.258
258.111
266.771
275.154
283.177
290.701
297.587
303.694
308.856
312.964
315.949
317.746
318.329
317.663
315.71
312.474
307.978
302.254
295.374
287.418
278.482
268.722
258.29
247.333
236.014
224.458
212.767
201.044
189.367
177.801
166.411
155.24
144.316
133.674
123.328
113.28
103.519
94.002
84.69
75.563
66.59
57.764
49.083
40.546
32.165
23.965
15.967
8.196
0.679
-6.569
-13.526
-20.164
-26.457
-32.369
-37.873
-42.952
-47.596
-51.798
-55.56
-58.886
-61.787
-64.285
-66.398
-68.147
-69.551
-70.627
-71.395
-71.877
-72.095
-72.074
-71.837
-71.403
-70.793
-70.027
-69.125
-68.104
-66.98
-65.769
-64.485
-63.144
-61.761
-60.351
-58.928
-57.506
-56.096
-54.71
-53.359
-52.05
-50.791
-49.588
-48.446
-47.369
-46.36
-45.42
-44.552
-43.755
-43.029
-42.373
-41.787
-41.268
-40.813
-40.421
-40.09
-39.815
-39.594
-39.425
-39.304
-39.228
-39.193
-39.195
-39.233
-39.301
-39.396
-39.515
-39.654
-39.811
-39.982
-40.164
-40.354
-40.551
-40.753
-40.958
-41.164
-41.371
-41.579
-41.786
-41.992
-42.199
-42.405
-42.611
-42.818
-43.026
-43.236
-43.448
-43.663
-43.881
-44.103
-44.329
-44.561
-44.797
-45.039
-45.288
-45.542
-45.804
-46.073
-46.349
-46.634
-46.926
-47.227
-47.536
-47.854
-48.18
-48.515
-48.859
-49.21
-49.569
-49.935
-50.308
-50.688
-51.073
-51.463
-51.857
-52.254
-52.655
-53.057
-53.46
-53.864
-54.267
-54.67
-55.07
-55.468
-55.863
-56.254
-56.641
-57.022
-57.397
-57.765
-58.126
-58.478
-58.821
-59.155
-59.477
-59.788
-60.087
-60.372
-60.644
-60.901
-61.143
-61.37
-61.58
-61.773
-61.949
-62.107
-62.248
-62.371
-62.476
-62.563
-62.632
-62.683
-62.716
-62.732
-62.73
-62.713
-62.679
-62.631
-62.568
-62.491
-62.402
-62.302
-62.192
-62.073
-61.946
-61.813
-61.676
-61.536
-61.394
-61.252
-61.112
-60.975
-60.842
-60.715
-60.595
-60.483
-60.381
-60.288
-60.207
-60.138
-60.081
-60.037
-60.006
-59.988
-59.984
-59.992
-60.013
-60.046
-60.089
-60.143
-60.205
-60.275
-60.351
-60.431
-60.515
-60.599
-60.682
-60.761
-60.836
-60.903
-60.96
-61.005
-61.037
-61.053
-61.052
-61.031
-60.991
-60.928
-60.843
-60.734
-60.601
-60.443
-60.26
-60.052
-59.82
-59.564
-59.284
-58.982
-58.659
-58.317
-57.956
-57.58
-57.19
-56.788
-56.376
-55.958
-55.535
-55.11
-54.687
-54.268
-53.856
-53.453
-53.063
-52.689
-52.331
-51.993
-51.676
-51.381
-51.111
-50.865
-50.644
-50.448
-50.276
-50.127
-49.999
-49.891
-49.799
-49.722
-49.655
-49.595
-49.539
-49.481
-49.418
-49.344
-49.254
-49.144
-49.006
-48.835
-48.625
-48.37
-48.064
-47.701
-47.274
-46.778
-46.207
-45.554
-44.816
-43.986
-43.06
-42.035
-40.906
-39.673
-38.332
-36.884
-35.327
-33.664
-31.895
-30.024
-28.053
-25.989
-23.835
-21.6
-19.291
-16.916
-14.484
-12.007
-9.493
-6.957
-4.41
-1.87
0.648
3.127
5.548
7.892
10.14
12.273
14.276
16.135
17.835
19.365
20.708
21.854
22.787
23.499
23.98
24.223
24.226
23.991
23.526
22.844
21.955
20.864
19.566
18.06
16.342
14.417
12.286
9.956
7.446
4.778
1.985
-0.9
-3.861
-6.882
-9.946
-13.04
-16.127
-19.153
-22.066
-24.782
-27.205
-29.305
-31.081
-32.597
-34.012
-35.434
-36.947
-38.692
-40.762
-43.087
-45.478
-47.524
-48.705
-48.795
-47.715
-45.369
-41.825
-37.278
-32.13
-27.23
-23.44
-21.121
-20.44
-21.458
-24.037
-28.194
-33.795
-40.182
-46.788
-53.33
-59.516
-65.304
-70.676
-75.005
-76.785
-74.044
-64.891
-48.089
-24.775
3.073
35.587
74.664
124.928
191.336
273.726
367.797
466.364
560.63
645.025
715.667
767.566
796.388
795.554
758.548
683.918
572.165
430.401
273.053
115.573
-23.614
-129.561
-197.054
-226.489
-224.277
-201.669
-168.075
-132.132
-103.003
-83.732
-73.779
-70.186
-65.479
-56.424
-44.072
-30.92
-21.995
-19.366
-21.848
-27.746
-34.518
-40.517
-45.224
-48.073
-48.915
-47.946
-45.399
-41.694
-37.297
-32.642
-28.244
-24.69
-22.308
-21.125
-21.034
-21.782
-23.098
-24.757
-26.453
-27.848
-28.733
-29.011
-28.65
-27.695
-26.188
-24.147
-21.629
-18.696
-15.394
-11.772
-7.882
-3.78
0.467
4.772
9.051
13.225
17.204
20.927
24.352
27.451
30.234
32.732
34.981
37.025
38.917
40.716
42.513
44.411
46.491
48.831
51.5
54.559
58.109
62.232
66.984
72.416
78.54
85.338
92.792
100.864
109.487
118.597
128.1
137.878
147.861
157.993
168.238
178.595
189.017
199.449
209.842
220.135
230.278
240.248
250.01
259.536
268.825
277.859
286.634
295.174
303.441
311.362
318.827
325.664
331.723
336.893
341.069
344.176
346.153
346.917
346.409
344.585
341.383
336.767
330.701
323.125
314.045
303.523
291.665
278.656
264.692
249.935
234.549
218.686
202.483
186.106
169.713
153.443
137.469
121.945
107.023
92.883
79.653
67.411
56.205
46.018
36.81
28.557
21.215
14.737
9.083
4.179
-0.054
-3.692
-6.85
-9.636
-12.151
-14.519
-16.832
-19.156
-21.545
-24.021
-26.582
-29.236
-31.974
-34.777
-37.64
-40.534
-43.425
-46.273
-49.018
-51.607
-54
-56.153
-58.037
-59.638
-60.943
-61.957
-62.702
-63.194
-63.457
-63.519
-63.4
-63.13
-62.742
-62.273
-61.768
-61.264
-60.789
-60.369
-60.024
-59.77
-59.618
-59.576
-59.639
-59.808
-60.083
-60.461
-60.943
-61.528
-62.21
-62.984
-63.842
-64.777
-65.785
-66.859
-67.995
-69.187
-70.43
-71.72
-73.054
-74.428
-75.836
-77.271
-78.725
-80.192
-81.664
-83.133
-84.593
-86.035
-87.454
-88.843
-90.198
-91.514
-92.784
-94.007
-95.176
-96.288
-97.341
-98.331
-99.256
-100.114
-100.903
-101.623
-102.273
-102.853
-103.363
-103.803
-104.174
-104.478
-104.717
-104.892
-105.007
-105.064
-105.066
-105.018
-104.921
-104.782
-104.602
-104.388
-104.141
-103.867
-103.57
-103.252
-102.918
-102.57
-102.211
-101.846
-101.475
-101.104
-100.733
-100.365
-100.004
-99.651
-99.308
-98.977
-98.659
-98.357
-98.07
-97.8
-97.546
-97.309
-97.089
-96.884
-96.695
-96.52
-96.357
-96.205
-96.063
-95.927
-95.796
-95.669
-95.542
-95.414
-95.282
-95.145
-95.001
-94.848
-94.685
-94.509
-94.319
-94.114
-93.892
-93.652
-93.393
-93.113
-92.811
-92.487
-92.139
-91.768
-91.373
-90.953
-90.51
-90.042
-89.552
-89.04
-88.507
-87.955
-87.385
-86.799
-86.2
-85.59
-84.971
-84.346
-83.717
-83.086
-82.457
-81.832
-81.212
-80.6
-79.998
-79.408
-78.832
-78.272
-77.729
-77.204
-76.699
-76.216
-75.754
-75.315
-74.9
-74.508
-74.141
-73.798
-73.478
-73.182
-72.91
-72.659
-72.429
-72.22
-72.028
-71.854
-71.694
-71.548
-71.412
-71.286
-71.168
-71.054
-70.944
-70.836
-70.727
-70.616
-70.503
-70.385
-70.261
-70.131
-69.993
-69.849
-69.697
-69.538
-69.371
-69.198
-69.018
-68.833
-68.644
-68.451
-68.257
-68.062
-67.868
-67.678
-67.491
-67.311
-67.137
-66.973
-66.819
-66.676
-66.546
-66.428
-66.324
-66.233
-66.156
-66.094
-66.045
-66.008
-65.983
-65.968
-65.96
-65.958
-65.958
-65.957
-65.95
-65.934
-65.905
-65.856
-65.785
-65.685
-65.55
-65.376
-65.156
-64.884
-64.555
-64.162
-63.7
-63.164
-62.549
-61.85
-61.065
-60.19
-59.223
-58.161
-57.005
-55.753
-54.406
-52.965
-51.431
-49.808
-48.098
-46.308
-44.444
-42.512
-40.524
-38.491
-36.424
-34.335
-32.239
-30.148
-28.078
-26.043
-24.054
-22.125
-20.269
-18.5
-16.835
-15.289
-13.876
-12.608
-11.499
-10.559
-9.799
-9.227
-8.843
-8.649
-8.65
-8.85
-9.268
-9.914
-10.793
-11.904
-13.246
-14.808
-16.581
-18.542
-20.65
-22.866
-25.148
-27.461
-29.781
-32.079
-34.314
-36.437
-38.387
-40.109
-41.57
-42.74
-43.598
-44.136
-44.367
-44.336
-44.12
-43.811
-43.506
-43.294
-43.27
-43.547
-44.22
-45.407
-47.264
-49.868
-53.231
-57.29
-61.802
-66.474
-71.06
-75.21
-78.502
-80.662
-81.471
-80.96
-79.675
-78.225
-77.092
-76.728
-77.461
-79.495
-82.986
-87.618
-91.488
-91.764
-86.122
-73.063
-53.501
-29.514
-0.662
36.103
85.763
152.328
234.72
326.573
419.435
507.156
586.563
656.328
713.204
749.025
754.073
720.368
645.831
534.594
394.933
239.17
80.408
-66.033
-183.686
-262.185
-297.701
-294.377
-265.97
-226.563
-187.278
-157.269
-136.839
-122.554
-111.257
-97.146
-79.424
-61.053
-44.671
-34.45
-31.672
-34.646
-41.602
-50.126
-58.429
-65.63
-70.815
-73.563
-73.935
-72.167
-68.736
-64.187
-59.075
-54.065
-49.872
-46.91
-45.257
-44.795
-45.235
-46.268
-47.623
-48.98
-49.999
-50.47
-50.308
-49.489
-48.071
-46.106
-43.626
-40.682
-37.334
-33.619
-29.562
-25.201
-20.58
-15.772
-10.867
-5.941
-1.059
3.711
8.301
12.656
16.747
20.566
24.138
27.482
30.62
33.575
36.37
39.054
41.695
44.368
47.153
50.13
53.377
56.988
61.08
65.746
71.05
77.027
83.679
90.998
98.986
107.631
116.911
126.789
137.216
148.142
159.529
171.333
183.495
195.932
208.521
221.145
233.711
246.131
258.346
270.295
281.897
293.07
303.749
313.861
323.328
332.064
339.943
346.835
352.641
357.284
360.721
362.933
363.886
363.558
361.924
358.962
354.67
349.069
342.172
334.008
324.637
314.12
302.579
290.169
277.015
263.245
248.977
234.306
219.339
204.191
188.97
173.805
158.829
144.147
129.868
116.096
102.91
90.403
78.623
67.572
57.266
47.705
38.88
30.8
23.458
16.817
10.841
5.467
0.601
-3.819
-7.856
-11.578
-15.042
-18.323
-21.482
-24.542
-27.522
-30.435
-33.286
-36.092
-38.863
-41.58
-44.22
-46.747
-49.104
-51.259
-53.189
-54.87
-56.283
-57.407
-58.224
-58.737
-58.963
-58.916
-58.614
-58.07
-57.297
-56.327
-55.194
-53.937
-52.599
-51.215
-49.808
-48.403
-47.021
-45.679
-44.392
-43.167
-42.001
-40.897
-39.857
-38.883
-37.98
-37.145
-36.372
-35.659
-34.998
-34.385
-33.818
-33.293
-32.807
-32.356
-31.941
-31.561
-31.217
-30.909
-30.633
-30.389
-30.173
-29.983
-29.816
-29.671
-29.544
-29.434
-29.34
-29.261
-29.197
-29.149
-29.118
-29.103
-29.106
-29.129
-29.173
-29.239
-29.33
-29.446
-29.59
-29.764
-29.97
-30.208
-30.48
-30.788
-31.132
-31.512
-31.928
-32.382
-32.871
-33.397
-33.958
-34.553
-35.182
-35.843
-36.534
-37.254
-38.001
-38.772
-39.565
-40.376
-41.202
-42.04
-42.885
-43.734
-44.583
-45.427
-46.263
-47.085
-47.891
-48.675
-49.436
-50.168
-50.868
-51.535
-52.164
-52.753
-53.3
-53.803
-54.261
-54.673
-55.038
-55.355
-55.625
-55.848
-56.025
-56.157
-56.244
-56.29
-56.294
-56.261
-56.192
-56.089
-55.957
-55.798
-55.616
-55.415
-55.198
-54.97
-54.735
-54.497
-54.26
-54.028
-53.806
-53.597
-53.405
-53.233
-53.086
-52.966
-52.877
-52.821
-52.802
-52.82
-52.878
-52.978
-53.122
-53.309
-53.541
-53.818
-54.141
-54.508
-54.921
-55.377
-55.876
-56.416
-56.995
-57.612
-58.263
-58.946
-59.656
-60.391
-61.147
-61.918
-62.701
-63.491
-64.282
-65.069
-65.848
-66.613
-67.357
-68.077
-68.765
-69.417
-70.027
-70.589
-71.097
-71.545
-71.929
-72.242
-72.481
-72.64
-72.714
-72.699
-72.591
-72.386
-72.082
-71.674
-71.16
-70.539
-69.808
-68.968
-68.019
-66.962
-65.797
-64.529
-63.159
-61.692
-60.133
-58.487
-56.759
-54.958
-53.091
-51.165
-49.19
-47.177
-45.136
-43.081
-41.025
-38.983
-36.968
-34.997
-33.083
-31.244
-29.492
-27.841
-26.303
-24.89
-23.616
-22.495
-21.539
-20.761
-20.171
-19.777
-19.587
-19.61
-19.85
-20.303
-20.968
-21.844
-22.932
-24.244
-25.787
-27.559
-29.555
-31.769
-34.186
-36.794
-39.568
-42.466
-45.447
-48.471
-51.502
-54.519
-57.491
-60.379
-63.131
-65.686
-67.991
-70.014
-71.731
-73.118
-74.167
-74.89
-75.325
-75.546
-75.633
-75.661
-75.704
-75.84
-76.161
-76.762
-77.762
-79.321
-81.531
-84.407
-87.868
-91.68
-95.558
-99.231
-102.324
-104.376
-105.061
-104.193
-101.901
-98.803
-95.57
-92.807
-91.169
-91.159
-93.066
-96.991
-102.337
-107.55
-110.746
-109.852
-102.766
-87.613
-62.483
-25.694
23.664
84.468
153.667
227.859
303.364
378.552
453.88
527.552
595.668
650.484
680.844
678.594
639.598
565.26
461.661
336.029
197.647
56.872
-73.88
-180.65
-253.656
-288.736
-288.252
-262.83
-225.01
-185.915
-155.685
-136.655
-125.945
-119.263
-109.527
-94.403
-76.274
-58.483
-45.799
-40.038
-39.921
-43.652
-48.923
-54.208
-58.762
-61.774
-62.868
-62.034
-59.426
-55.467
-50.622
-45.378
-40.406
-36.414
-33.809
-32.651
-32.764
-33.826
-35.532
-37.62
-39.781
-41.676
-43.077
-43.895
-44.117
-43.797
-42.971
-41.621
-39.725
-37.303
-34.386
-31.023
-27.295
-23.256
-18.959
-14.473
-9.85
-5.13
-0.338
4.53
9.495
14.57
19.769
25.098
30.546
36.122
41.842
47.719
53.781
60.049
66.532
73.24
80.175
87.319
94.657
102.161
109.803
117.567
125.433
133.375
141.367
149.371
157.363
165.336
173.283
181.199
189.094
196.988
204.923
212.973
221.185
229.584
238.171
246.921
255.817
264.851
274.006
283.268
292.595
301.922
311.19
320.331
329.237
337.779
345.773
352.994
359.261
364.435
368.409
371.114
372.465
372.375
370.784
367.635
362.902
356.576
348.636
339.089
328.003
315.487
301.726
286.952
271.365
255.142
238.45
221.432
204.258
187.105
170.131
153.507
137.385
121.916
107.272
93.591
80.957
69.415
58.951
49.508
41.047
33.52
26.872
21.058
16.004
11.62
7.825
4.506
1.56
-1.117
-3.648
-6.131
-8.631
-11.201
-13.856
-16.59
-19.402
-22.279
-25.2
-28.152
-31.104
-34.019
-36.858
-39.562
-42.078
-44.367
-46.383
-48.095
-49.487
-50.548
-51.284
-51.715
-51.859
-51.738
-51.382
-50.812
-50.056
-49.147
-48.119
-47.014
-45.868
-44.707
-43.556
-42.434
-41.357
-40.335
-39.375
-38.474
-37.632
-36.849
-36.123
-35.456
-34.848
-34.294
-33.791
-33.333
-32.916
-32.539
-32.199
-31.894
-31.622
-31.383
-31.177
-31.004
-30.866
-30.76
-30.685
-30.638
-30.616
-30.617
-30.638
-30.677
-30.729
-30.795
-30.87
-30.956
-31.05
-31.152
-31.259
-31.372
-31.489
-31.611
-31.737
-31.867
-32.001
-32.14
-32.284
-32.432
-32.587
-32.747
-32.912
-33.083
-33.259
-33.441
-33.628
-33.821
-34.019
-34.223
-34.432
-34.648
-34.869
-35.097
-35.332
-35.574
-35.823
-36.079
-36.343
-36.615
-36.894
-37.181
-37.475
-37.777
-38.087
-38.404
-38.727
-39.057
-39.394
-39.737
-40.086
-40.441
-40.801
-41.166
-41.537
-41.912
-42.292
-42.677
-43.066
-43.459
-43.856
-44.257
-44.661
-45.069
-45.48
-45.893
-46.308
-46.725
-47.143
-47.561
-47.978
-48.394
-48.808
-49.219
-49.626
-50.029
-50.427
-50.819
-51.205
-51.584
-51.955
-52.318
-52.673
-53.02
-53.358
-53.686
-54.006
-54.317
-54.619
-54.912
-55.197
-55.474
-55.743
-56.006
-56.262
-56.513
-56.76
-57.003
-57.243
-57.482
-57.721
-57.962
-58.205
-58.451
-58.703
-58.961
-59.227
-59.501
-59.783
-60.075
-60.376
-60.686
-61.005
-61.333
-61.667
-62.008
-62.354
-62.702
-63.05
-63.397
-63.74
-64.074
-64.398
-64.707
-64.997
-65.265
-65.505
-65.712
-65.883
-66.012
-66.094
-66.123
-66.095
-66.005
-65.846
-65.614
-65.305
-64.913
-64.435
-63.865
-63.202
-62.442
-61.584
-60.627
-59.569
-58.411
-57.155
-55.802
-54.356
-52.818
-51.193
-49.488
-47.709
-45.862
-43.955
-41.999
-40.004
-37.984
-35.952
-33.921
-31.906
-29.921
-27.983
-26.109
-24.315
-22.615
-21.025
-19.558
-18.231
-17.06
-16.06
-15.244
-14.623
-14.206
-14.004
-14.025
-14.278
-14.763
-15.48
-16.426
-17.601
-19.013
-20.668
-22.563
-24.692
-27.044
-29.607
-32.366
-35.3
-38.374
-41.55
-44.784
-48.039
-51.281
-54.482
-57.613
-60.638
-63.513
-66.189
-68.611
-70.742
-72.56
-74.054
-75.247
-76.159
-76.789
-77.228
-77.641
-78.176
-79.013
-80.232
-81.743
-83.598
-85.997
-88.934
-92.258
-95.704
-98.751
-101.161
-103.094
-104.396
-104.687
-103.844
-101.851
-99.059
-96.414
-94.468
-93.268
-93.189
-94.628
-97.626
-102.254
-108.031
-113.377
-116.827
-116.518
-109.51
-94.056
-69.201
-34.796
7.183
56.467
114.204
181.056
258.366
344.143
433.323
520.942
600.403
664.535
706.643
718.495
692.972
628.041
525.657
393.82
246.354
97.905
-35.819
-142.441
-217.057
-260.451
-279.089
-280.374
-268.856
-247.395
-218.82
-188.47
-162.752
-146.207
-138.67
-134.883
-129.791
-121.121
-109.952
-100.313
-94.618
-92.693
-93.444
-94.816
-95.442
-95.054
-93.333
-90.283
-86.257
-81.568
-76.536
-71.575
-67.046
-63.311
-60.882
-60.028
-60.707
-62.759
-65.883
-69.734
-74.005
-78.383
-82.525
-86.217
-89.353
-91.859
-93.722
-94.908
-95.381
-95.147
-94.236
-92.675
-90.489
-87.72
-84.429
-80.719
-76.719
-72.517
-68.167
-63.698
-59.125
-54.464
-49.73
-44.924
-40.023
-35.01
-29.878
-24.624
-19.254
-13.764
-8.134
-2.342
3.627
9.78
16.112
22.618
29.304
36.163
43.178
50.319
57.539
64.811
72.132
79.501
86.923
94.414
101.994
109.709
117.641
125.845
134.353
143.172
152.27
161.629
171.24
181.086
191.148
201.378
211.694
222.022
232.294
242.403
252.211
261.522
270.079
277.674
284.145
289.361
293.24
295.686
296.599
295.923
293.631
289.725
284.232
277.163
268.509
258.323
246.722
233.895
220.11
205.587
190.512
175.065
159.41
143.735
128.223
113.003
98.161
83.773
69.92
56.713
44.294
32.743
22.082
12.277
3.242
-5.081
-12.737
-19.793
-26.331
-32.462
-38.279
-43.825
-49.106
-54.133
-58.935
-63.573
-68.126
-72.636
-77.112
-81.546
-85.913
-90.205
-94.408
-98.484
-102.372
-105.999
-109.313
-112.299
-114.962
-117.309
-119.337
-121.032
-122.38
-123.387
-124.071
-124.446
-124.528
-124.328
-123.866
-123.18
-122.32
-121.339
-120.28
-119.171
-118.033
-116.886
-115.749
-114.643
-113.58
-112.565
-111.605
-110.707
-109.884
-109.144
-108.495
-107.937
-107.465
-107.076
-106.767
-106.535
-106.378
-106.291
-106.272
-106.318
-106.429
-106.605
-106.844
-107.141
-107.494
-107.896
-108.342
-108.827
-109.344
-109.887
-110.448
-111.023
-111.607
-112.194
-112.781
-113.363
-113.935
-114.495
-115.039
-115.564
-116.067
-116.545
-116.997
-117.422
-117.82
-118.189
-118.53
-118.844
-119.131
-119.393
-119.631
-119.846
-120.04
-120.215
-120.372
-120.514
-120.643
-120.762
-120.873
-120.979
-121.084
-121.19
-121.3
-121.417
-121.543
-121.681
-121.832
-122
-122.185
-122.388
-122.612
-122.857
-123.124
-123.414
-123.726
-124.06
-124.416
-124.794
-125.191
-125.607
-126.04
-126.488
-126.949
-127.421
-127.901
-128.387
-128.876
-129.365
-129.852
-130.332
-130.804
-131.263
-131.708
-132.134
-132.539
-132.92
-133.274
-133.599
-133.893
-134.154
-134.378
-134.566
-134.716
-134.827
-134.899
-134.931
-134.924
-134.879
-134.795
-134.675
-134.521
-134.333
-134.116
-133.871
-133.601
-133.309
-133
-132.677
-132.343
-132.003
-131.66
-131.32
-130.986
-130.662
-130.352
-130.06
-129.791
-129.547
-129.332
-129.149
-129
-128.888
-128.814
-128.78
-128.787
-128.834
-128.922
-129.048
-129.212
-129.412
-129.643
-129.904
-130.189
-130.495
-130.817
-131.149
-131.486
-131.821
-132.147
-132.458
-132.746
-133.004
-133.223
-133.396
-133.515
-133.572
-133.559
-133.468
-133.291
-133.022
-132.652
-132.177
-131.588
-130.881
-130.051
-129.094
-128.006
-126.785
-125.431
-123.941
-122.317
-120.56
-118.673
-116.659
-114.522
-112.268
-109.904
-107.437
-104.876
-102.231
-99.512
-96.73
-93.896
-91.024
-88.13
-85.23
-82.342
-79.486
-76.68
-73.943
-71.295
-68.754
-66.339
-64.064
-61.941
-59.986
-58.214
-56.641
-55.285
-54.157
-53.268
-52.624
-52.227
-52.079
-52.178
-52.518
-53.095
-53.905
-54.954
-56.249
-57.799
-59.603
-61.658
-63.947
-66.443
-69.118
-71.938
-74.873
-77.908
-81.014
-84.156
-87.296
-90.378
-93.348
-96.162
-98.747
-101.008
-102.907
-104.433
-105.67
-106.813
-107.969
-109.146
-110.342
-111.527
-112.637
-113.643
-114.346
-114.348
-113.521
-112.027
-110.232
-108.672
-107.753
-107.619
-108.473
-110.699
-114.353
-119.09
-124.184
-128.606
-131.628
-133.1
-133.138
-131.743
-129.147
-125.868
-122.619
-120.526
-119.851
-119.128
-116.506
-110.124
-99.262
-85.861
-71.019
-53.062
-28.047
11.728
73.005
156.228
258.057
370.728
483.201
588.695
680.953
751.778
796.127
806.481
775.998
705.429
596.917
457.751
301.483
142.024
-4.088
-121.991
-203.351
-247.378
-259.662
-248.012
-221.92
-187.624
-151.206
-121.634
-102.376
-94.963
-96.598
-97.776
-94.236
-85.407
-73.169
-63.709
-59.515
-59.696
-63.215
-67.566
-71.177
-73.919
-75.311
-75.179
-73.748
-71.106
-67.343
-62.711
-57.51
-52.114
-47.11
-42.869
-39.422
-36.733
-34.663
-33.011
-31.615
-30.233
-28.539
-26.354
-23.631
-20.38
-16.722
-12.778
-8.614
-4.331
-0.023
4.278
8.555
12.833
17.169
21.563
25.993
30.442
34.873
39.269
43.623
